seq,IR,Red
1,224229,209468
1,57324,57283
1,73680,73685
1,90056,90068
1,106453,106454
1,122833,122881
1,139175,139246
1,155620,155660
1,172029,171979
1,188386,188401
1,204732,204602
1,221138,204843
1,224967,204882
1,224925,204862
1,224900,204863
1,224866,204922
1,224840,204960
1,224825,204949
1,224806,204940
1,224790,204957
1,224770,204972
1,224750,205044
1,224747,204992
1,224725,205022
1,224722,205027
1,224698,205026
1,224693,205021
1,224684,205001
1,224689,205005
1,224677,205003
1,224666,204999
1,224672,205068
2,224645,204996
2,224633,205039
2,224389,204876
2,224361,204920
2,224351,204968
2,224331,204879
2,224304,204928
2,224306,204932
2,224290,204862
2,224285,204811
2,224266,204890
2,224259,204851
2,224256,204848
2,224258,204910
2,224267,204897
2,224259,204920
2,224268,204863
2,224275,204838
2,224287,204906
2,224271,204918
2,224267,204914
2,224277,204892
2,224276,204948
2,224281,204890
2,224277,204954
2,224295,204939
2,224286,204959
2,224297,204927
2,224285,204877
2,224282,204919
2,224281,204897
2,224300,204946
3,224284,204905
3,224290,204927
3,224288,204886
3,224292,204870
3,224282,204942
3,224281,204888
3,224276,204909
3,224275,204880
3,224272,204904
3,224260,204922
3,224256,204903
3,224238,204889
3,224232,204935
3,224225,204840
3,224216,204839
3,224214,204877
3,224223,204811
3,224222,204873
3,224204,204835
3,224207,204844
3,224206,204855
3,224220,204892
3,224211,204893
3,224214,204836
3,224225,204889
3,224219,204863
3,224228,204862
3,224232,204876
3,224229,204811
3,224247,204864
3,224233,204891
3,224234,204862
4,224230,204889
4,224252,204905
4,224259,204912
4,224252,204934
4,224256,204862
4,224254,204943
4,224246,204879
4,224241,204860
4,224251,204919
4,224234,204870
4,224250,204830
4,224253,204834
4,224234,204847
4,224242,204866
4,224238,204941
4,224240,204855
4,224244,204923
4,224245,204924
4,224233,204917
4,224218,204873
4,224219,204865
4,224223,204869
4,224239,204809
4,224226,204880
4,224234,204858
4,224237,204886
4,224222,204815
4,224246,204962
4,224235,204878
4,224226,204913
4,224245,204915
4,224245,204902
5,224240,204995
5,224241,204942
5,224227,204936
5,224240,204949
5,224252,204884
5,224245,204931
5,224251,204914
5,224264,204917
5,224263,204894
5,224254,204861
5,224233,204917
5,224259,204886
5,224259,204860
5,224270,204883
5,224268,204911
5,224265,204828
5,224261,204832
5,224254,204854
5,224260,204847
5,224257,204883
5,224273,204881
5,224266,204752
5,224250,204793
5,224234,204787
5,224213,204826
5,224203,204781
5,224182,204801
5,224158,204858
5,224125,204789
5,224123,204805
5,224089,204773
5,224065,204735
6,224057,204749
6,224035,204718
6,224012,204885
6,224013,204835
6,224018,204890
6,224023,204885
6,224030,204886
6,224028,204813
6,224040,204840
6,224041,204900
6,224058,204872
6,224046,204866
6,224066,204886
6,224070,204815
6,224080,204847
6,224081,204860
6,224083,204845
6,224069,204865
6,224069,204807
6,224074,204835
6,224053,204832
6,224058,204805
6,224068,204826
6,224071,204877
6,224090,204823
6,224078,204808
6,224073,204827
6,224067,204732
6,224074,204866
6,224071,204817
6,224065,204837
6,224067,204890
7,224049,204784
7,224049,204789
7,224046,204773
7,224049,204823
7,224050,204785
7,224062,204806
7,224055,204830
7,224054,204818
7,224063,204835
7,224061,204807
7,224048,204779
7,224056,204825
7,224060,204802
7,224049,204765
7,224059,204762
7,224068,204835
7,224070,204876
7,224079,204841
7,224061,204816
7,224077,204791
7,224068,204758
7,224066,204719
7,224083,204795
7,224077,204742
7,224098,204874
7,224080,204778
7,224079,204760
7,224081,204807
7,224092,204750
7,224088,204868
7,224105,204792
7,224106,204780
8,224109,204804
8,224108,204753
8,224109,204803
8,224096,204811
8,224127,204764
8,224119,204817
8,224061,204816
8,224119,204833
8,224120,204794
8,224120,204780
8,224113,204814
8,224111,204854
8,224104,204826
8,224113,204895
8,224122,204814
8,224110,204874
8,224128,204790
8,224124,204782
8,224141,204808
8,224118,204802
8,224125,204799
8,224128,204803
8,224127,204806
8,224140,204808
8,224155,204848
8,224150,204779
8,224143,204810
8,224154,204812
8,224155,204829
8,224153,204820
8,224164,204791
8,224142,204777
9,224167,204814
9,224146,204787
9,224154,204765
9,224151,204798
9,224169,204819
9,224156,204835
9,224143,204840
9,224150,204804
9,224172,204788
9,224150,204818
9,224157,204803
9,224150,204772
9,224150,204782
9,224161,204802
9,224142,204844
9,224128,204866
9,224096,204815
9,224100,204794
9,224058,204769
9,224033,204764
9,224015,204758
9,223996,204755
9,223969,204740
9,223949,204709
9,223947,204721
9,223922,204718
9,223910,204710
9,223893,204687
9,223893,204698
9,223879,204714
9,223895,204734
9,223913,204701
10,223939,204679
10,223944,204695
10,223948,204698
10,223967,204676
10,223961,204705
10,223961,204680
10,223960,204744
10,223972,204728
10,223967,204802
10,223961,204652
10,223980,204679
10,223967,204732
10,223967,204673
10,223977,204720
10,223980,204675
10,223973,204733
10,223971,204728
10,223978,204721
10,223980,204739
10,223987,204738
10,223981,204720
10,223972,204762
10,223976,204727
10,223987,204690
10,223981,204718
10,223988,204677
10,223981,204663
10,223989,204717
10,223993,204651
10,223982,204660
10,223980,204731
10,223979,204692
11,224006,204630
11,224007,204697
11,224013,204628
11,224017,204657
11,224013,204568
11,224001,204568
11,224018,204586
11,224021,204580
11,224011,204581
11,224024,204645
11,224031,204624
11,224027,204591
11,224046,204659
11,224044,204588
11,224043,204593
11,224046,204612
11,224054,204572
11,224046,204654
11,224059,204648
11,224056,204672
11,224068,204705
11,224071,204689
11,224073,204639
11,224085,204642
11,224089,204602
11,224077,204584
11,224080,204629
11,224083,204614
11,224067,204592
11,224086,204595
11,224074,204658
11,224066,204619
12,224067,204606
12,224087,204670
12,224092,204727
12,224102,204672
12,224104,204650
12,224112,204671
12,224129,204676
12,224122,204701
12,224113,204654
12,224133,204586
12,224135,204625
12,224130,204611
12,224146,204600
12,224147,204557
12,224139,204619
12,224160,204603
12,224142,204630
12,224142,204647
12,224135,204591
12,224147,204598
12,224157,204655
12,224151,204618
12,224170,204640
12,224169,204618
12,224184,204616
12,224177,204632
12,224183,204719
12,224182,204655
12,224175,204686
12,224197,204584
12,224201,204610
12,224179,204612
13,224202,204681
13,224207,204628
13,224201,204629
13,224208,204592
13,224219,204670
13,224214,204651
13,224208,204651
13,224209,204607
13,224198,204585
13,224195,204563
13,224212,204632
13,224172,204587
13,224162,204605
13,224126,204597
13,224106,204582
13,224099,204589
13,224067,204585
13,224046,204635
13,224033,204546
13,224017,204558
13,224020,204522
13,223993,204560
13,223983,204585
13,223971,204628
13,223968,204683
13,223968,204591
13,223968,204589
13,223980,204596
13,223973,204531
13,223976,204578
13,223987,204581
13,223995,204579
14,224043,204568
14,224040,204565
14,224056,204554
14,224068,204580
14,224050,204607
14,224071,204590
14,224070,204595
14,224054,204623
14,224064,204550
14,224062,204569
14,224071,204570
14,224062,204550
14,224065,204576
14,224071,204557
14,224063,204581
14,224065,204553
14,224086,204536
14,224064,204615
14,224081,204603
14,224074,204604
14,224055,204634
14,224071,204536
14,224071,204517
14,224065,204533
14,224054,204502
14,224050,204560
14,224059,204526
14,224048,204509
14,224059,204553
14,224059,204606
14,224034,204545
14,224052,204510
15,224058,204541
15,224062,204488
15,224066,204609
15,224062,204568
15,224066,204546
15,224073,204490
15,224053,204547
15,224071,204499
15,224077,204560
15,224075,204580
15,224062,204522
15,224075,204522
15,224076,204522
15,224066,204501
15,224078,204536
15,224077,204569
15,224071,204656
15,224061,204539
15,224077,204506
15,224086,204556
15,224076,204517
15,224070,204540
15,224080,204540
15,224071,204506
15,224085,204481
15,224112,204525
15,224091,204478
15,224086,204487
15,224091,204470
15,224110,204512
15,224096,204474
15,224103,204522
16,224121,204539
16,224121,204467
16,224125,204475
16,224127,204511
16,224124,204480
16,224139,204517
16,224125,204527
16,224133,204525
16,224124,204536
16,224129,204446
16,224123,204486
16,224130,204502
16,224121,204534
16,224126,204568
16,224135,204524
16,224127,204531
16,224137,204511
16,224131,204501
16,224144,204528
16,224139,204519
16,224139,204478
16,224144,204467
16,224144,204501
16,224145,204568
16,224144,204488
16,224144,204514
16,224138,204549
16,224146,204513
16,224158,204541
16,224142,204453
16,224142,204476
16,224152,204496
17,224161,204497
17,224068,204494
17,224045,204532
17,224025,204416
17,224004,204472
17,223983,204452
17,223962,204437
17,223954,204412
17,223949,204439
17,223924,204393
17,223925,204399
17,223917,204454
17,223917,204489
17,223924,204447
17,223909,204464
17,223925,204464
17,223928,204512
17,223926,204486
17,223932,204509
17,223936,204597
17,223945,204422
17,223956,204463
17,223959,204414
17,223966,204420
17,223978,204418
17,223974,204489
17,223977,204446
17,223988,204461
17,223988,204495
17,223984,204453
17,223991,204447
17,224008,204474
18,223985,204361
18,223992,204418
18,223995,204426
18,224005,204412
18,223988,204398
18,224008,204552
18,224009,204481
18,224012,204499
18,224016,204497
18,224008,204409
18,224012,204461
18,224036,204408
18,224004,204399
18,224016,204386
18,224011,204408
18,223994,204423
18,224004,204382
18,223997,204409
18,224016,204459
18,224026,204385
18,224018,204424
18,224019,204547
18,224012,204530
18,224025,204415
18,224019,204440
18,224010,204410
18,224014,204395
18,224014,204419
18,224027,204441
18,224022,204405
18,224040,204411
18,224045,204400
19,224047,204444
19,224065,204394
19,224072,204357
19,224082,204393
19,224074,204447
19,224074,204390
19,224077,204402
19,224082,204394
19,224084,204427
19,224084,204405
19,224086,204449
19,224085,204364
19,224095,204418
19,224093,204351
19,224092,204389
19,224089,204377
19,224090,204383
19,224089,204360
19,224080,204387
19,224099,204369
19,224087,204444
19,224094,204348
19,224096,204442
19,224102,204396
19,224103,204334
19,224108,204356
19,224096,204363
19,224109,204366
19,224110,204352
19,224116,204411
19,224103,204390
19,224117,204415
20,224128,204421
20,224126,204341
20,224123,204389
20,224129,204380
20,224146,204389
20,224130,204434
20,224140,204414
20,224154,204410
20,224144,204406
20,224145,204411
20,224172,204435
20,224160,204457
20,224166,204355
20,224173,204438
20,224165,204381
20,224156,204391
20,224168,204425
20,224185,204380
20,224162,204407
20,224182,204421
20,224173,204394
20,224182,204346
20,224163,204407
20,224170,204410
20,224172,204411
20,224160,204368
20,224172,204416
20,224176,204360
20,224167,204371
20,224186,204414
20,224184,204438
20,224183,204389
21,224056,204491
21,224040,204479
21,224033,204473
21,224002,204362
21,223978,204432
21,223960,204376
21,223955,204401
21,223934,204415
21,223915,204419
21,223930,204379
21,223914,204418
21,223922,204393
21,223943,204459
21,223954,204456
21,223958,204365
21,223964,204462
21,223970,204407
21,223973,204462
21,223985,204426
21,223990,204435
21,223981,204423
21,223991,204452
21,224004,204439
21,223994,204445
21,224018,204443
21,224004,204430
21,223999,204423
21,223981,204351
21,223991,204388
21,223994,204320
21,223979,204366
21,223993,204369
22,223984,204319
22,224004,204383
22,223995,204346
22,223995,204358
22,224010,204383
22,224004,204289
22,223986,204308
22,223983,204342
22,223989,204313
22,223991,204326
22,223985,204376
22,224003,204357
22,224018,204379
22,224005,204378
22,224015,204352
22,224011,204403
22,224006,204381
22,224019,204390
22,224021,204306
22,224015,204404
22,224021,204386
22,224024,204382
22,224015,204406
22,224019,204363
22,224026,204386
22,224025,204477
22,224016,204398
22,224029,204376
22,224025,204374
22,224018,204404
22,224029,204462
22,224034,204355
23,224044,204392
23,224048,204405
23,224040,204351
23,224052,204410
23,224051,204351
23,224043,204444
23,224038,204319
23,224052,204325
23,224048,204369
23,224050,204377
23,224064,204406
23,224061,204355
23,224073,204344
23,224078,204455
23,224095,204481
23,224070,204451
23,224079,204429
23,224102,204472
23,224094,204509
23,224103,204429
23,224102,204441
23,224090,204474
23,224108,204394
23,224098,204424
23,224091,204447
23,224113,204476
23,224107,204456
23,224107,204476
23,224116,204421
23,224122,204438
23,224123,204463
23,224119,204430
24,224113,204433
24,224140,204510
24,224151,204418
24,224153,204428
24,224155,204417
24,224145,204381
24,224156,204447
24,224165,204436
24,224170,204429
24,224160,204494
24,224165,204431
24,224164,204412
24,224172,204418
24,224175,204401
24,224161,204465
24,224161,204434
24,224181,204436
24,224182,204511
24,224177,204404
24,224184,204418
24,224129,204459
24,224111,204417
24,224087,204419
24,224070,204366
24,224040,204415
24,224024,204404
24,224021,204363
24,223979,204322
24,223964,204342
24,223964,204335
24,223939,204360
24,223938,204374
25,223954,204381
25,223966,204318
25,223977,204371
25,223981,204399
25,223985,204330
25,224009,204402
25,224006,204361
25,224017,204338
25,224022,204350
25,224023,204364
25,224028,204392
25,224032,204349
25,224046,204394
25,224056,204335
25,224040,204344
25,224051,204345
25,224054,204378
25,224043,204285
25,224050,204359
25,224063,204332
25,224046,204353
25,224045,204290
25,224041,204335
25,224043,204318
25,224048,204339
25,224062,204393
25,224062,204408
25,224058,204360
25,224073,204361
25,224070,204330
25,224060,204345
25,224063,204350
26,224061,204368
26,224082,204301
26,224076,204431
26,224084,204466
26,224087,204354
26,224094,204397
26,224089,204356
26,224094,204357
26,224105,204389
26,224084,204369
26,224095,204339
26,224096,204366
26,224099,204356
26,224093,204312
26,224108,204408
26,224112,204345
26,224097,204384
26,224102,204373
26,224102,204374
26,224101,204376
26,224106,204321
26,224123,204335
26,224110,204309
26,224117,204357
26,224123,204371
26,224126,204394
26,224131,204405
26,224133,204359
26,224135,204390
26,224117,204314
26,224132,204330
26,224120,204439
27,224123,204336
27,224133,204374
27,224132,204427
27,224133,204363
27,224152,204381
27,224143,204387
27,224136,204389
27,224153,204420
27,224151,204468
27,224141,204436
27,224148,204392
27,224148,204385
27,224152,204434
27,224159,204429
27,224149,204427
27,224155,204381
27,224150,204340
27,224162,204396
27,224169,204357
27,224165,204426
27,224168,204354
27,224178,204370
27,224170,204394
27,224170,204343
27,224163,204321
27,224177,204331
27,224165,204332
27,224177,204366
27,224174,204384
27,224165,204370
27,224179,204349
27,224168,204366
28,224163,204376
28,224180,204380
28,224179,204417
28,224177,204405
28,224184,204409
28,224193,204391
28,224181,204360
28,224179,204385
28,224184,204409
28,224168,204378
28,224166,204466
28,224161,204377
28,224130,204398
28,224115,204325
28,224098,204313
28,224088,204380
28,224046,204333
28,224032,204409
28,224017,204308
28,223982,204313
28,223977,204320
28,223967,204251
28,223926,204299
28,223921,204264
28,223925,204284
28,223920,204306
28,223890,204254
28,223919,204349
28,223922,204305
28,223916,204307
28,223917,204295
28,223917,204300
29,223930,204295
29,224009,204294
29,224004,204257
29,224011,204298
29,224004,204271
29,223995,204319
29,224003,204260
29,223990,204268
29,224002,204242
29,224032,204317
29,224015,204270
29,224013,204234
29,224021,204289
29,224018,204216
29,224022,204262
29,224016,204328
29,224036,204257
29,224016,204283
29,224015,204312
29,224006,204272
29,224010,204297
29,223992,204308
29,224005,204293
29,223999,204340
29,223985,204296
29,224000,204257
29,224007,204179
29,223996,204237
29,224005,204263
29,224012,204204
29,224008,204189
29,224017,204157
30,224018,204166
30,224032,204163
30,224037,204167
30,224032,204201
30,224037,204173
30,224045,204142
30,224046,204202
30,224046,204189
30,224042,204212
30,224051,204218
30,224048,204137
30,224055,204195
30,224070,204210
30,224068,204148
30,224056,204155
30,224061,204183
30,224058,204241
30,224057,204183
30,224067,204131
30,224069,204220
30,224064,204205
30,224064,204187
30,224062,204169
30,224075,204172
30,224070,204212
30,224074,204158
30,224058,204157
30,224062,204152
30,224084,204140
30,224075,204204
30,224070,204258
30,224072,204155
31,224076,204133
31,224107,204204
31,224113,204214
31,224119,204217
31,224098,204124
31,224112,204189
31,224111,204197
31,224121,204183
31,224117,204213
31,224123,204193
31,224122,204170
31,224121,204167
31,224118,204219
31,224101,204187
31,224118,204159
31,224128,204178
31,224127,204130
31,224122,204133
31,224119,204186
31,224129,204118
31,224118,204116
31,224131,204159
31,224139,204186
31,224134,204148
31,224136,204138
31,224152,204158
31,224152,204163
31,224145,204152
31,224162,204154
31,224152,204224
31,224149,204152
31,224148,204118
32,224162,204096
32,224161,204174
32,224152,204245
32,224140,204115
32,224133,204154
32,224122,204131
32,224087,204174
32,224067,204148
32,224051,204097
32,224025,204161
32,223993,204163
32,223977,204119
32,223904,204046
32,223901,204096
32,223906,204096
32,223901,204097
32,223907,204038
32,223910,204059
32,223911,204089
32,223911,204071
32,223918,204134
32,223922,204067
32,223923,204017
32,223934,204091
32,223956,204124
32,223945,204121
32,223938,204068
32,223954,204128
32,223952,204106
32,223950,204031
32,223968,204067
32,223967,204048
33,223954,204116
33,223960,204082
33,223948,204092
33,223967,204090
33,223962,204103
33,223959,204125
33,223962,204105
33,223969,204086
33,223987,204082
33,223972,204091
33,223986,204088
33,223979,204102
33,223969,204118
33,223981,204103
33,223972,204106
33,223956,204089
33,223970,204175
33,223969,204151
33,223953,204094
33,223964,204127
33,223974,204114
33,223961,204104
33,223997,204133
33,223988,204180
33,223982,204072
33,223987,204066
33,223998,204057
33,223996,204101
33,223991,204079
33,223996,204043
33,223990,204168
33,223978,204076
34,223991,204140
34,223982,204076
34,223984,204032
34,223996,204087
34,223994,204084
34,223997,204073
34,223998,204081
34,223990,204095
34,224007,204079
34,224014,204116
34,223996,204044
34,224006,204050
34,224016,204071
34,224006,204060
34,224020,204105
34,224030,204097
34,224037,204138
34,224025,204137
34,224046,204198
34,224030,204109
34,224025,204159
34,224039,204174
34,224027,204135
34,224027,204121
34,224037,204123
34,224031,204184
34,224023,204166
34,224044,204095
34,224042,204167
34,224042,204191
34,224047,204167
34,224042,204154
35,224044,204139
35,224047,204120
35,224062,204193
35,224053,204101
35,224048,204081
35,224073,204069
35,224063,204122
35,224051,204098
35,224072,204173
35,224073,204095
35,224063,204092
35,224083,204146
35,224069,204067
35,224063,204092
35,224075,204089
35,224086,204079
35,224077,204147
35,224080,204171
35,224083,204179
35,224087,204084
35,224087,204151
35,224081,204144
35,224089,204218
35,224094,204148
35,224108,204145
35,224114,204074
35,224099,204158
35,224096,204180
35,224086,204175
35,224068,204168
35,224060,204124
35,224049,204102
36,224017,204131
36,223866,204134
36,223860,204060
36,223875,204102
36,223859,204126
36,223858,204059
36,223860,204125
36,223865,204102
36,223860,203963
36,223870,204008
36,223878,204014
36,223889,204003
36,223896,204019
36,223892,204027
36,223905,204001
36,223918,204043
36,223903,204044
36,223923,203948
36,223929,204017
36,223916,203995
36,223932,203968
36,223946,204030
36,223950,203985
36,223952,203971
36,223962,204018
36,223958,204036
36,223967,204040
36,223965,203985
36,223962,204104
36,223966,204014
36,223985,204027
36,223985,204068
37,223985,203980
37,223978,204009
37,223967,203942
37,223992,203994
37,224005,203959
37,223978,203974
37,223981,203998
37,223988,204004
37,223977,203957
37,223978,203965
37,223994,204061
37,223987,203978
37,223969,203993
37,223998,204034
37,223997,204063
37,223981,204005
37,223994,204059
37,223992,203976
37,223994,204053
37,223990,204038
37,223993,204065
37,223998,204086
37,223996,204107
37,224001,204161
37,224008,204067
37,224007,204054
37,224010,204075
37,224014,204005
37,224007,203962
37,224016,203947
37,224026,203996
37,224022,203999
38,224023,204000
38,224017,204028
38,224031,203978
38,224022,203946
38,224028,204016
38,224015,204059
38,224032,204080
38,224035,204023
38,224029,204003
38,224026,203969
38,224023,204011
38,224019,203966
38,224023,203935
38,224026,204003
38,224020,204019
38,224013,203991
38,224027,203971
38,224035,203974
38,224018,203987
38,224018,203997
38,224021,204020
38,224012,204026
38,224006,204024
38,224029,204018
38,224028,203987
38,224014,203959
38,224019,203980
38,224018,204006
38,224020,203972
38,224029,203904
38,224017,204006
38,224026,203945
39,224040,203954
39,224055,203953
39,224053,203959
39,224056,203999
39,224059,204073
39,224052,203931
39,224062,203993
39,224064,203952
39,224063,203992
39,224070,204054
39,224051,203979
39,224062,203891
39,224075,203959
39,224070,203964
39,224061,204012
39,224075,203951
39,224063,203980
39,224062,204021
39,224046,204020
39,224051,204080
39,224030,204062
39,224010,204037
39,223998,203994
39,223958,204014
39,223929,203934
39,223913,204019
39,223893,203975
39,223883,203994
39,223846,203997
39,223846,204013
39,223825,204015
39,223842,203950
40,223828,203937
40,223840,204006
40,223859,203931
40,223862,204056
40,223875,204006
40,223868,204028
40,223880,204117
40,223880,203986
40,223886,203948
40,223895,204040
40,223906,204034
40,223899,203983
40,223912,204022
40,223938,204002
40,223901,203979
40,223920,203975
40,223929,204060
40,223898,204041
40,223897,203997
40,223895,204009
40,223900,203995
40,223897,203980
40,223936,204016
40,223914,204006
40,223915,204051
40,223923,204071
40,223934,204029
40,223911,204021
40,223933,204014
40,223930,204002
40,223929,203994
40,223947,204051
41,223914,204006
41,223916,204029
41,223924,204065
41,223920,204007
41,223918,203977
41,223916,203966
41,223921,204039
41,223913,203971
41,223940,203994
41,223939,203976
41,223935,203995
41,223895,204009
41,223951,203993
41,223940,204015
41,223942,203979
41,223957,203998
41,223953,203988
41,223947,203966
41,223973,204008
41,223955,203984
41,223958,204024
41,223958,204001
41,223959,204036
41,223959,204032
41,223970,204030
41,223965,204074
41,223962,203959
41,223965,203993
41,223976,204008
41,223992,203992
41,223973,203999
41,223986,203956
42,223994,203968
42,223989,204023
42,224011,203970
42,223998,203991
42,224003,203974
42,224003,203967
42,223995,204048
42,224013,204008
42,224026,203966
42,224008,203989
42,224014,203946
42,224019,203992
42,224018,203987
42,224026,203990
42,224035,203977
42,224030,203922
42,224032,203958
42,224026,203949
42,223973,203999
42,224031,203975
42,224030,203966
42,224033,204036
42,224027,203985
42,224032,204029
42,224043,204028
42,224053,203946
42,224050,203997
42,224061,204003
42,224053,203976
42,224060,203978
42,224050,203943
42,224054,203957
43,224079,203955
43,224081,204026
43,224081,204043
43,224069,203957
43,224068,203933
43,224080,203878
43,224071,203914
43,224092,203954
43,224099,203895
43,224098,203917
43,224097,203924
43,224093,203871
43,224099,203934
43,224090,203973
43,224078,203971
43,224076,204002
43,224069,203957
43,224055,203879
43,223947,203903
43,223907,203882
43,223910,203902
43,223887,203813
43,223862,203851
43,223857,203863
43,223840,203846
43,223845,203785
43,223846,203775
43,223848,203828
43,223843,203814
43,223835,203788
43,223846,203859
43,223845,203834
44,223897,203809
44,223897,203827
44,223905,203826
44,223915,203841
44,223918,203910
44,223906,203866
44,223920,203828
44,223922,203850
44,223923,203854
44,223925,203837
44,223929,203825
44,223917,203804
44,223923,203816
44,223916,203776
44,223912,203842
44,223910,203868
44,223913,203894
44,223913,203876
44,223936,203827
44,223917,203871
44,223931,203829
44,223921,203879
44,223940,203772
44,223936,203821
44,223931,203815
44,223924,203866
44,223926,203885
44,223929,203808
44,223920,203857
44,223922,203824
44,223934,203831
44,223919,203813
45,223932,203867
45,223951,203847
45,223945,203855
45,223957,203852
45,223941,203872
45,223957,203825
45,223957,203852
45,223963,203867
45,223961,203891
45,223961,203868
45,223956,203846
45,223961,203813
45,223975,203857
45,223981,203804
45,223967,203931
45,223975,203894
45,223973,203909
45,223993,203917
45,223980,203895
45,223984,203960
45,223988,203931
45,223981,203861
45,223994,203903
45,223982,203927
45,224001,203885
45,224004,203901
45,224003,203955
45,223997,203936
45,224020,203992
45,224009,203901
45,224028,203865
45,224009,203920
46,224022,203947
46,224037,203961
46,224041,203973
46,224027,203962
46,224021,203915
46,224044,203992
46,224046,203959
46,224039,203904
46,224055,203914
46,224045,203909
46,224042,203917
46,224049,203868
46,224047,203890
46,224051,203939
46,224044,203924
46,224053,204013
46,224058,203914
46,224069,203874
46,224063,203919
46,224077,203887
46,224079,203941
46,224087,203903
46,224081,203894
46,224087,203901
46,224089,203909
46,224100,203910
46,224096,204005
46,224099,204019
46,224105,204018
46,224109,203941
46,224106,203959
46,224120,203901
47,224114,203883
47,224124,203957
47,224118,203915
47,224108,203885
47,224092,203899
47,224093,203974
47,224059,203889
47,224051,203863
47,224026,203908
47,223995,203912
47,223979,203884
47,223969,203851
47,223944,203871
47,223924,203803
47,223925,203856
47,223917,203855
47,223898,203814
47,223910,203839
47,223906,203856
47,223907,203802
47,223895,203831
47,223902,203808
47,223915,203834
47,223902,203780
47,223921,203836
47,223916,203931
47,223923,203835
47,223937,203835
47,223958,203860
47,223935,203859
47,223958,203860
47,223947,203914
48,223946,203851
48,223986,203850
48,223988,203850
48,223968,203858
48,223975,203873
48,223998,203877
48,223965,203835
48,223987,203828
48,223982,203895
48,223999,203920
48,224006,203924
48,223997,203946
48,224009,203871
48,223992,203855
48,224014,203833
48,224007,203878
48,224024,203882
48,224015,203842
48,224017,203871
48,224020,203840
48,224028,203854
48,224016,203877
48,224027,203865
48,224017,203777
48,224021,203843
48,224019,203840
48,224008,203864
48,224019,203886
48,224034,203842
48,224024,203815
48,224030,203830
48,224028,203871
49,224030,203853
49,224102,203859
49,224095,203862
49,224103,203843
49,224083,203825
49,224084,203870
49,224095,203824
49,224089,203799
49,224101,203837
49,224088,203859
49,224093,203843
49,224106,203845
49,224091,203850
49,224109,203898
49,224101,203941
49,224111,203892
49,224103,203866
49,224111,203854
49,224107,203876
49,224118,203896
49,224112,203931
49,224124,203825
49,224110,203890
49,224131,203875
49,224132,203919
49,224138,203876
49,224144,203881
49,224141,203875
49,224145,203849
49,224143,203851
49,224155,203886
49,224160,203838
50,224155,203874
50,224158,203847
50,224157,203867
50,224168,203928
50,224187,203898
50,224175,203821
50,224187,203892
50,224184,203883
50,224181,203867
50,224194,203918
50,224110,203890
50,224183,203903
50,224190,203856
50,224204,203883
50,224202,203892
50,224206,203841
50,224220,203870
50,224211,203876
50,224205,203833
50,224227,203883
50,224214,203904
50,224219,203939
50,224223,203895
50,224220,203906
50,224230,203843
50,224219,203924
50,224219,203940
50,224216,203899
50,224212,203871
50,224218,203883
50,224215,203900
50,224210,203904
51,224225,203926
51,224159,203933
51,224159,203887
51,224133,203898
51,224119,203912
51,224102,203884
51,224071,203852
51,224063,203847
51,224041,203926
51,224031,203852
51,224024,203833
51,224012,203761
51,224007,203749
51,224010,203806
51,224009,203830
51,223997,203792
51,224006,203814
51,224009,203766
51,224003,203800
51,224017,203836
51,224025,203876
51,224023,203899
51,224035,203899
51,224051,203888
51,224049,203834
51,224049,203797
51,224060,203819
51,224071,203843
51,224072,203792
51,224078,203793
51,224075,203828
51,224074,203804
52,224075,203804
52,224091,203837
52,224100,203870
52,224111,203824
52,224104,203848
52,224112,203853
52,224107,203921
52,224107,203821
52,224115,203799
52,224115,203817
52,224111,203918
52,224110,203873
52,224106,203915
52,224113,203858
52,224106,203857
52,224109,203841
52,224084,203889
52,224084,203870
52,224085,203797
52,224092,203857
52,224078,203785
52,224093,203860
52,224101,203822
52,224091,203839
52,224092,203818
52,224118,203834
52,224109,203806
52,224114,203808
52,224130,203820
52,224128,203846
52,224122,203819
52,224131,203825
53,224151,203866
53,224151,203799
53,224148,203834
53,224160,203845
53,224166,203843
53,224162,203809
53,224154,203781
53,224162,203864
53,224173,203853
53,224175,203821
53,224172,203882
53,224166,203835
53,224170,203825
53,224161,203774
53,224174,203890
53,224169,203773
53,224157,203813
53,224180,203881
53,224192,203917
53,224195,203818
53,224200,203865
53,224199,203877
53,224198,203865
53,224198,203910
53,224201,203911
53,224186,203973
53,224192,203848
53,224190,203806
53,224195,203822
53,224177,203830
53,224194,203834
53,224193,203817
54,224200,203854
54,224210,203787
54,224218,203839
54,224243,203891
54,224243,203853
54,224230,203868
54,224242,203854
54,224252,203852
54,224238,203812
54,224247,203808
54,224244,203824
54,224264,203857
54,224254,203813
54,224265,203862
54,224270,203849
54,224264,203842
54,224272,203820
54,224275,203904
54,224264,203821
54,224264,203876
54,224269,203947
54,224284,203937
54,224266,203900
54,224271,203953
54,224267,203912
54,224263,203910
54,224249,203896
54,224259,203923
54,224262,203838
54,224241,203846
54,224265,203858
54,224232,203874
55,224201,203832
55,224063,203827
55,224050,203804
55,224039,203874
55,224048,203780
55,224030,203874
55,224040,203816
55,224037,203834
55,224051,203748
55,224047,203805
55,224059,203792
55,224072,203808
55,224064,203792
55,224077,203759
55,224086,203799
55,224076,203797
55,224085,203844
55,224094,203862
55,224094,203838
55,224108,203864
55,224112,203857
55,224130,203843
55,224107,203845
55,224117,203834
55,224127,203810
55,224126,203850
55,224127,203799
55,224129,203812
55,224132,203821
55,224126,203787
55,224140,203837
55,224127,203783
56,224108,203801
56,224133,203814
56,224126,203841
56,224135,203840
56,224120,203785
56,224124,203743
56,224128,203782
56,224126,203795
56,224127,203785
56,224119,203812
56,224124,203751
56,224113,203746
56,224120,203777
56,224124,203807
56,224118,203803
56,224109,203827
56,224125,203797
56,224128,203850
56,224124,203801
56,224142,203814
56,224141,203777
56,224139,203858
56,224156,203858
56,224157,203873
56,224165,203833
56,224150,203815
56,224151,203796
56,224162,203800
56,224163,203822
56,224166,203808
56,224168,203868
56,224186,203796
57,224183,203805
57,224202,203867
57,224194,203789
57,224198,203786
57,224198,203817
57,224197,203747
57,224206,203804
57,224204,203846
57,224198,203798
57,224215,203790
57,224204,203828
57,224212,203785
57,224219,203800
57,224220,203852
57,224220,203720
57,224213,203773
57,224229,203840
57,224229,203837
57,224230,203804
57,224233,203779
57,224253,203844
57,224239,203904
57,224235,203868
57,224240,203907
57,224241,203820
57,224254,203773
57,224250,203805
57,224247,203838
57,224239,203759
57,224263,203719
57,224271,203790
57,224280,203792
58,224313,203839
58,224310,203795
58,224325,203826
58,224318,203764
58,224305,203808
58,224312,203847
58,224317,203794
58,224325,203771
58,224321,203770
58,224329,203827
58,224320,203797
58,224331,203825
58,224325,203810
58,224320,203809
58,224315,203748
58,224330,203836
58,224339,203861
58,224338,203836
58,224342,203781
58,224336,203748
58,224344,203803
58,224345,203778
58,224358,203790
58,224344,203799
58,224337,203864
58,224354,203903
58,224354,203808
58,224351,203797
58,224358,203777
58,224366,203784
58,224380,203800
58,224356,203788
59,224362,203772
59,224217,203709
59,224197,203730
59,224184,203700
59,224170,203785
59,224148,203733
59,224138,203681
59,224130,203758
59,224134,203740
59,224132,203732
59,224138,203759
59,224123,203737
59,224144,203720
59,224141,203761
59,224138,203679
59,224141,203714
59,224151,203748
59,224161,203713
59,224172,203718
59,224183,203731
59,224187,203653
59,224187,203660
59,224201,203714
59,224196,203672
59,224189,203705
59,224208,203736
59,224222,203705
59,224217,203705
59,224211,203702
59,224213,203646
59,224218,203700
59,224209,203681
60,224207,203698
60,224215,203653
60,224235,203688
60,224211,203688
60,224211,203689
60,224232,203670
60,224230,203710
60,224240,203705
60,224241,203701
60,224243,203657
60,224246,203673
60,224246,203670
60,224235,203704
60,224231,203728
60,224235,203701
60,224242,203695
60,224240,203720
60,224238,203691
60,224251,203746
60,224251,203750
60,224249,203703
60,224257,203748
60,224260,203697
60,224252,203724
60,224260,203708
60,224264,203648
60,224275,203709
60,224280,203653
60,224288,203709
60,224273,203700
60,224268,203701
60,224289,203705
61,224287,203693
61,224327,203717
61,224330,203664
61,224327,203729
61,224335,203739
61,224330,203673
61,224343,203740
61,224329,203735
61,224343,203700
61,224346,203751
61,224339,203696
61,224337,203791
61,224345,203739
61,224337,203742
61,224343,203757
61,224351,203766
61,224349,203741
61,224349,203755
61,224354,203745
61,224359,203843
61,224401,203803
61,224399,203684
61,224401,203739
61,224405,203720
61,224418,203748
61,224434,203780
61,224403,203749
61,224419,203789
61,224427,203757
61,224427,203757
61,224433,203792
61,224430,203787
62,224471,203765
62,224463,203720
62,224460,203763
62,224482,203719
62,224472,203701
62,224469,203758
62,224481,203732
62,224483,203751
62,224480,203751
62,224483,203744
62,224496,203763
62,224499,203834
62,224494,203811
62,224504,203737
62,224511,203838
62,224510,203801
62,224507,203767
62,224533,203718
62,224528,203717
62,224532,203708
62,224546,203780
62,224546,203781
62,224535,203754
62,224550,203769
62,224554,203787
62,224548,203815
62,224567,203787
62,224565,203721
62,224568,203788
62,224555,203811
62,224570,203803
62,224570,203802
63,224443,203744
63,224412,203688
63,224390,203735
63,224371,203692
63,224367,203707
63,224360,203642
63,224362,203692
63,224354,203710
63,224350,203755
63,224351,203711
63,224349,203681
63,224358,203689
63,224361,203660
63,224359,203689
63,224380,203706
63,224373,203706
63,224398,203734
63,224387,203766
63,224370,203697
63,224398,203722
63,224418,203765
63,224394,203728
63,224408,203726
63,224428,203740
63,224429,203720
63,224429,203702
63,224438,203726
63,224450,203751
63,224427,203729
63,224436,203707
63,224438,203671
63,224424,203676
64,224440,203650
64,224471,203722
64,224460,203763
64,224466,203721
64,224464,203726
64,224461,203754
64,224443,203702
64,224436,203734
64,224434,203690
64,224430,203722
64,224426,203746
64,224425,203684
64,224424,203755
64,224420,203704
64,224417,203719
64,224420,203747
64,224408,203738
64,224400,203740
64,224415,203771
64,224412,203764
64,224424,203768
64,224412,203698
64,224414,203696
64,224421,203709
64,224417,203685
64,224413,203703
64,224410,203713
64,224402,203701
64,224405,203791
64,224418,203712
64,224415,203722
64,224414,203658
65,224416,203763
65,224441,203723
65,224441,203762
65,224432,203734
65,224443,203666
65,224453,203731
65,224446,203772
65,224450,203654
65,224453,203705
65,224466,203702
65,224475,203703
65,224470,203658
65,224463,203703
65,224468,203649
65,224476,203712
65,224470,203656
65,224481,203686
65,224489,203646
65,224489,203628
65,224505,203632
65,224497,203606
65,224503,203638
65,224521,203626
65,224505,203589
65,224514,203588
65,224512,203538
65,224516,203566
65,224522,203602
65,224521,203607
65,224524,203630
65,224531,203554
65,224540,203666
66,224556,203641
66,224568,203665
66,224574,203644
66,224587,203639
66,224582,203689
66,224586,203639
66,224580,203632
66,224599,203627
66,224588,203651
66,224584,203619
66,224594,203606
66,224594,203621
66,224592,203692
66,224596,203652
66,224600,203681
66,224613,203668
66,224607,203653
66,224600,203635
66,224596,203677
66,224596,203657
66,224592,203673
66,224583,203628
66,224566,203626
66,224568,203666
66,224547,203630
66,224530,203642
66,224502,203640
66,224480,203636
66,224448,203685
66,224427,203592
66,224417,203598
66,224390,203608
67,224369,203586
67,224331,203497
67,224330,203509
67,224346,203486
67,224347,203554
67,224366,203547
67,224358,203510
67,224375,203550
67,224391,203554
67,224386,203479
67,224403,203508
67,224410,203504
67,224414,203598
67,224448,203554
67,224442,203541
67,224448,203517
67,224458,203503
67,224463,203647
67,224459,203601
67,224437,203533
67,224446,203520
67,224434,203569
67,224434,203536
67,224450,203539
67,224434,203521
67,224430,203544
67,224433,203554
67,224423,203565
67,224434,203530
67,224426,203528
67,224434,203567
67,224431,203543
68,224431,203549
68,224450,203551
68,224430,203542
68,224437,203594
68,224444,203539
68,224448,203545
68,224451,203551
68,224457,203524
68,224462,203519
68,224464,203553
68,224471,203544
68,224462,203531
68,224484,203517
68,224494,203582
68,224492,203534
68,224497,203534
68,224503,203547
68,224520,203544
68,224513,203556
68,224515,203507
68,224531,203595
68,224534,203541
68,224524,203476
68,224533,203550
68,224561,203573
68,224545,203605
68,224545,203573
68,224545,203539
68,224542,203562
68,224533,203529
68,224544,203491
68,224548,203545
69,224580,203540
69,224581,203605
69,224579,203544
69,224578,203591
69,224580,203573
69,224565,203499
69,224582,203507
69,224581,203518
69,224571,203555
69,224572,203559
69,224587,203544
69,224584,203562
69,224583,203594
69,224598,203597
69,224622,203600
69,224629,203546
69,224626,203559
69,224632,203552
69,224630,203535
69,224656,203591
69,224667,203611
69,224644,203589
69,224642,203587
69,224660,203647
69,224644,203576
69,224652,203606
69,224647,203583
69,224636,203551
69,224636,203552
69,224639,203583
69,224644,203604
69,224645,203607
70,224647,203521
70,224648,203624
70,224662,203574
70,224664,203590
70,224675,203550
70,224667,203557
70,224678,203604
70,224679,203572
70,224685,203587
70,224689,203581
70,224695,203560
70,224692,203543
70,224704,203514
70,224716,203581
70,224713,203558
70,224714,203536
70,224730,203555
70,224731,203597
70,224724,203578
70,224710,203571
70,224689,203567
70,224676,203493
70,224657,203498
70,224619,203503
70,224594,203497
70,224586,203510
70,224561,203481
70,224522,203494
70,224517,203522
70,224490,203446
70,224479,203415
70,224462,203497
71,224452,203443
71,224461,203446
71,224462,203505
71,224469,203464
71,224457,203474
71,224461,203521
71,224464,203483
71,224445,203480
71,224444,203472
71,224449,203584
71,224428,203419
71,224431,203423
71,224430,203511
71,224424,203468
71,224419,203480
71,224420,203493
71,224413,203436
71,224407,203428
71,224407,203449
71,224408,203464
71,224415,203452
71,224439,203504
71,224433,203469
71,224460,203438
71,224467,203445
71,224494,203468
71,224505,203510
71,224513,203519
71,224529,203506
71,224542,203496
71,224543,203451
71,224568,203461
72,224558,203570
72,224592,203553
72,224608,203631
72,224634,203593
72,224642,203610
72,224672,203587
72,224682,203620
72,224686,203596
72,224710,203618
72,224734,203666
72,224741,203633
72,224751,203616
72,224751,203619
72,224773,203606
72,224757,203543
72,224765,203662
72,224761,203591
72,224713,203581
72,224726,203539
72,224718,203577
72,224699,203613
72,224711,203585
72,224705,203579
72,224700,203581
72,224696,203630
72,224699,203638
72,224700,203644
72,224719,203573
72,224716,203556
72,224749,203584
72,224780,203616
72,224782,203605
73,224832,203607
73,224829,203627
73,224830,203592
73,224820,203619
73,224820,203610
73,224807,203670
73,224806,203627
73,224808,203663
73,224804,203610
73,224801,203593
73,224818,203622
73,224815,203655
73,224815,203603
73,224809,203656
73,224819,203657
73,224827,203652
73,224821,203667
73,224836,203691
73,224843,203595
73,224838,203643
73,224864,203700
73,224874,203611
73,224866,203636
73,224879,203617
73,224872,203601
73,224870,203594
73,224874,203640
73,224885,203628
73,224860,203651
73,224861,203641
73,224841,203666
73,224836,203640
74,224792,203603
74,224800,203559
74,224806,203592
74,224811,203598
74,224819,203606
74,224854,203621
74,224853,203598
74,224890,203629
74,224893,203623
74,224892,203664
74,224900,203684
74,224906,203596
74,224899,203570
74,224891,203628
74,224878,203613
74,224847,203598
74,224807,203544
74,224815,203610
74,224761,203564
74,224730,203606
74,224727,203601
74,224711,203541
74,224663,203481
74,224669,203548
74,224661,203507
74,224626,203495
74,224624,203549
74,224638,203594
74,224624,203614
74,224618,203581
74,224640,203592
74,224634,203513
75,224630,203476
75,224652,203510
75,224644,203481
75,224640,203469
75,224660,203494
75,224651,203455
75,224640,203486
75,224644,203492
75,224654,203518
75,224649,203509
75,224672,203574
75,224670,203514
75,224687,203542
75,224668,203481
75,224673,203515
75,224664,203553
75,224667,203532
75,224678,203531
75,224696,203543
75,224689,203593
75,224693,203587
75,224692,203551
75,224692,203519
75,224704,203482
75,224698,203527
75,224705,203538
75,224703,203565
75,224698,203524
75,224699,203499
75,224687,203502
75,224697,203495
75,224697,203495
76,224687,203528
76,224667,203542
76,224656,203609
76,224661,203518
76,224664,203606
76,224662,203549
76,224648,203555
76,224660,203573
76,224657,203561
76,224649,203522
76,224660,203522
76,224655,203525
76,224658,203498
76,224666,203520
76,224687,203459
76,224667,203488
76,224671,203496
76,224664,203494
76,224663,203485
76,224668,203476
76,224663,203547
76,224673,203503
76,224667,203515
76,224667,203517
76,224671,203466
76,224678,203477
76,224679,203503
76,224664,203529
76,224665,203501
76,224672,203515
76,224668,203488
76,224649,203515
77,224658,203513
77,224650,203547
77,224659,203545
77,224672,203535
77,224652,203537
77,224666,203493
77,224678,203488
77,224689,203533
77,224668,203486
77,224666,203508
77,224653,203462
77,224661,203467
77,224658,203484
77,224656,203481
77,224657,203459
77,224655,203430
77,224667,203493
77,224654,203482
77,224665,203490
77,224668,203465
77,224660,203434
77,224668,203453
77,224689,203526
77,224679,203497
77,224685,203503
77,224682,203523
77,224697,203533
77,224684,203491
77,224697,203484
77,224669,203529
77,224655,203480
77,224653,203478
78,224639,203448
78,224451,203412
78,224431,203391
78,224404,203361
78,224411,203336
78,224416,203394
78,224409,203326
78,224398,203393
78,224415,203365
78,224420,203412
78,224413,203412
78,224430,203329
78,224428,203343
78,224439,203335
78,224447,203397
78,224453,203372
78,224447,203371
78,224447,203476
78,224448,203460
78,224432,203434
78,224446,203355
78,224423,203335
78,224438,203410
78,224419,203381
78,224406,203384
78,224411,203384
78,224400,203382
78,224411,203409
78,224419,203373
78,224421,203402
78,224421,203417
78,224444,203353
79,224469,203421
79,224449,203405
79,224441,203408
79,224438,203324
79,224426,203402
79,224415,203386
79,224405,203364
79,224405,203307
79,224399,203399
79,224411,203369
79,224399,203338
79,224407,203374
79,224413,203350
79,224409,203367
79,224427,203390
79,224434,203412
79,224424,203357
79,224427,203307
79,224447,203353
79,224441,203360
79,224450,203349
79,224461,203337
79,224461,203375
79,224463,203337
79,224468,203399
79,224464,203385
79,224469,203314
79,224473,203385
79,224471,203407
79,224475,203404
79,224480,203384
79,224487,203321
80,224515,203448
80,224517,203456
80,224513,203420
80,224529,203358
80,224527,203355
80,224512,203340
80,224530,203395
80,224521,203393
80,224525,203443
80,224512,203473
80,224515,203363
80,224521,203378
80,224502,203289
80,224514,203342
80,224508,203342
80,224501,203381
80,224510,203307
80,224511,203358
80,224510,203420
80,224514,203344
80,224522,203332
80,224550,203386
80,224535,203440
80,224535,203358
80,224538,203399
80,224547,203340
80,224539,203366
80,224536,203398
80,224533,203370
80,224539,203330
80,224522,203291
80,224523,203411
81,224518,203391
81,224519,203345
81,224525,203331
81,224546,203394
81,224541,203416
81,224549,203436
81,224542,203444
81,224541,203417
81,224545,203357
81,224537,203430
81,224532,203359
81,224511,203337
81,224496,203268
81,224474,203320
81,224438,203325
81,224419,203337
81,224394,203311
81,224345,203301
81,224344,203314
81,224315,203337
81,224304,203345
81,224271,203275
81,224280,203206
81,224268,203280
81,224223,203318
81,224230,203319
81,224231,203319
81,224218,203251
81,224224,203264
81,224226,203230
81,224206,203278
81,224216,203203
82,224224,203236
82,224237,203255
82,224241,203272
82,224247,203243
82,224249,203172
82,224258,203241
82,224265,203284
82,224265,203214
82,224263,203238
82,224266,203248
82,224279,203230
82,224289,203247
82,224270,203261
82,224266,203260
82,224278,203233
82,224290,203259
82,224272,203227
82,224270,203245
82,224258,203249
82,224260,203250
82,224253,203216
82,224256,203170
82,224262,203280
82,224262,203275
82,224252,203216
82,224259,203208
82,224281,203218
82,224276,203217
82,224276,203199
82,224274,203242
82,224272,203181
82,224278,203262
83,224291,203189
83,224293,203228
83,224292,203214
83,224295,203232
83,224306,203193
83,224317,203238
83,224314,203248
83,224335,203252
83,224341,203209
83,224356,203228
83,224332,203251
83,224349,203232
83,224349,203262
83,224343,203228
83,224351,203298
83,224349,203251
83,224358,203230
83,224361,203258
83,224332,203242
83,224357,203247
83,224337,203180
83,224330,203211
83,224336,203183
83,224321,203211
83,224338,203256
83,224335,203280
83,224326,203217
83,224327,203249
83,224336,203267
83,224339,203239
83,224327,203238
83,224357,203232
84,224352,203259
84,224459,203277
84,224475,203269
84,224452,203233
84,224466,203250
84,224466,203311
84,224462,203263
84,224451,203237
84,224469,203237
84,224412,203224
84,224424,203275
84,224438,203291
84,224421,203291
84,224418,203339
84,224439,203291
84,224431,203295
84,224426,203203
84,224435,203262
84,224445,203295
84,224425,203276
84,224429,203252
84,224443,203331
84,224443,203266
84,224445,203287
84,224426,203336
84,224424,203287
84,224414,203270
84,224401,203230
84,224400,203258
84,224368,203293
84,224380,203252
84,224361,203236
85,224306,203221
85,224292,203259
85,224260,203205
85,224248,203199
85,224233,203210
85,224202,203144
85,224165,203150
85,224173,203143
85,224141,203112
85,224105,203138
85,224112,203178
85,224104,203124
85,224095,203132
85,224092,203077
85,224091,203102
85,224078,203085
85,224076,203046
85,224081,203054
85,224060,203047
85,224058,203033
85,224065,203109
85,224055,203073
85,224043,203071
85,224039,203012
85,224050,203032
85,224055,203047
85,224041,203062
85,224040,203019
85,224039,203003
85,224033,203013
85,224044,203094
85,224044,203030
86,224134,203047
86,224143,203069
86,224137,203109
86,224151,203175
86,224155,203161
86,224184,203134
86,224169,203097
86,224176,203117
86,224178,203106
86,224152,203106
86,224164,203098
86,224166,203120
86,224166,203083
86,224182,203098
86,224043,203071
86,224190,203119
86,224189,203101
86,224211,203147
86,224215,203132
86,224212,203118
86,224220,203068
86,224228,203112
86,224206,203057
86,224222,203119
86,224219,203106
86,224216,203123
86,224211,203076
86,224210,203079
86,224221,203063
86,224203,203089
86,224189,203100
86,224182,203044
87,224170,203064
87,224210,203062
87,224209,203032
87,224225,203068
87,224232,203019
87,224248,203026
87,224278,203087
87,224298,203107
87,224330,203041
87,224327,203049
87,224379,203109
87,224392,203067
87,224408,203132
87,224414,203138
87,224436,203193
87,224434,203146
87,224449,203093
87,224459,203114
87,224454,203130
87,224461,203149
87,224465,203135
87,224468,203115
87,224461,203050
87,224480,203143
87,224512,203157
87,224515,203177
87,224516,203075
87,224539,203140
87,224544,203147
87,224569,203145
87,224593,203149
87,224611,203168
88,224625,203130
88,224566,203113
88,224541,203074
88,224532,203151
88,224522,203066
88,224511,203110
88,224436,203193
88,224511,203146
88,224500,203203
88,224483,203136
88,224482,203178
88,224477,203154
88,224454,203107
88,224448,203086
88,224434,203128
88,224413,203087
88,224419,203047
88,224405,203107
88,224402,203080
88,224369,203066
88,224359,203079
88,224357,203026
88,224323,203050
88,224325,203080
88,224304,203093
88,224288,203067
88,224277,203054
88,224282,203032
88,224275,203122
88,224255,203071
88,224254,203040
88,224245,203045
89,224246,203030
89,224113,203008
89,224091,202974
89,224094,202999
89,224065,202987
89,224029,202961
89,224034,202971
89,224029,203002
89,224003,202944
89,224004,202944
89,224025,202961
89,223997,202946
89,224008,202964
89,224023,202969
89,224027,203000
89,224042,203029
89,224073,202937
89,224093,203017
89,224116,203005
89,224127,202978
89,224143,202991
89,224163,203034
89,224168,202984
89,224190,203020
89,224192,203018
89,224202,202977
89,224223,203024
89,224234,203013
89,224232,203041
89,224239,203039
89,224253,203065
89,224259,203039
90,224302,203058
90,224299,203046
90,224287,203070
90,224283,203067
90,224273,203093
90,224271,203033
90,224274,203054
90,224257,203020
90,224266,203023
90,224275,203093
90,224272,203080
90,224288,203083
90,224290,203106
90,224299,203143
90,224289,203018
90,224295,203046
90,224299,203074
90,224292,203080
90,224307,203049
90,224310,203079
90,224327,203110
90,224328,203082
90,224330,203058
90,224322,203053
90,224331,203068
90,224317,203075
90,224317,203146
90,224315,203123
90,224330,203086
90,224333,203103
90,224327,203087
90,224350,203110
91,224376,203075
91,224392,203104
91,224392,203088
91,224390,203121
91,224389,203072
91,224391,203086
91,224395,203101
91,224373,203099
91,224416,203037
91,224422,203127
91,224419,203031
91,224432,203074
91,224433,203097
91,224443,203084
91,224442,203102
91,224447,203149
91,224458,203165
91,224463,203218
91,224457,203210
91,224455,203175
91,224463,203184
91,224464,203163
91,224451,203157
91,224439,203209
91,224447,203217
91,224453,203205
91,224455,203189
91,224452,203256
91,224455,203214
91,224464,203164
91,224483,203156
91,224477,203215
92,224471,203198
92,224481,203147
92,224474,203171
92,224476,203205
92,224482,203182
92,224474,203233
92,224466,203164
92,224470,203203
92,224480,203174
92,224491,203226
92,224484,203223
92,224475,203181
92,224464,203236
92,224448,203262
92,224422,203251
92,224408,203207
92,224383,203255
92,224356,203223
92,224333,203254
92,224290,203114
92,224286,203159
92,224267,203241
92,224249,203146
92,224234,203183
92,224233,203159
92,224214,203153
92,224204,203175
92,224210,203084
92,224201,203125
92,224204,203124
92,224218,203200
92,224221,203138
93,224221,203131
93,224253,203087
93,224250,203136
93,224264,203093
93,224254,203124
93,224249,203137
93,224249,203130
93,224263,203138
93,224255,203164
93,224258,203079
93,224251,203191
93,224254,203128
93,224262,203126
93,224279,203109
93,224277,203173
93,224279,203131
93,224287,203162
93,224295,203177
93,224286,203124
93,224292,203170
93,224292,203116
93,224296,203167
93,224293,203136
93,224282,203120
93,224279,203137
93,224272,203141
93,224278,203106
93,224264,203148
93,224254,203156
93,224257,203175
93,224258,203169
93,224246,203095
94,224297,203150
94,224293,203136
94,224298,203169
94,224297,203118
94,224289,203049
94,224293,203157
94,224295,203117
94,224282,203135
94,224285,203109
94,224290,203108
94,224286,203126
94,224292,203128
94,224292,203119
94,224295,203066
94,224303,203105
94,224308,203053
94,224305,203106
94,224316,203044
94,224304,203100
94,224313,203137
94,224313,203093
94,224326,203125
94,224317,203113
94,224297,203077
94,224309,203075
94,224306,203122
94,224298,203080
94,224307,203076
94,224308,203095
94,224305,203087
94,224306,203084
94,224304,203095
95,224338,203124
95,224374,203127
95,224358,203117
95,224360,203077
95,224398,203210
95,224391,203247
95,224396,203177
95,224393,203219
95,224393,203148
95,224387,203118
95,224394,203186
95,224390,203209
95,224396,203186
95,224412,203239
95,224410,203132
95,224409,203123
95,224406,203131
95,224416,203119
95,224411,203065
95,224417,203108
95,224423,203185
95,224426,203238
95,224408,203165
95,224413,203156
95,224416,203146
95,224415,203145
95,224411,203150
95,224401,203154
95,224396,203130
95,224372,203093
95,224366,203146
95,224343,203128
96,224315,203127
96,224141,203032
96,224132,202985
96,224137,203056
96,224134,203033
96,224122,202991
96,224123,202984
96,224131,203057
96,224140,202984
96,224141,202945
96,224143,202999
96,224156,202984
96,224160,202986
96,224168,203039
96,224168,203007
96,224185,202993
96,224197,203023
96,224190,203039
96,224192,202986
96,224201,203055
96,224201,203021
96,224193,203010
96,224204,203074
96,224208,203017
96,224197,203058
96,224194,203074
96,224204,203025
96,224194,203089
96,224185,203021
96,224200,203021
96,224203,203048
96,224212,203024
97,224204,202989
97,224210,203012
97,224207,203034
97,224206,203007
97,224203,202979
97,224198,202972
97,224196,202968
97,224210,202994
97,224199,202940
97,224184,203002
97,224199,202989
97,224207,203026
97,224256,203049
97,224241,203086
97,224243,203021
97,224245,203015
97,224254,203074
97,224243,202985
97,224260,203000
97,224257,203010
97,224235,202980
97,224250,203010
97,224238,202995
97,224246,203010
97,224244,202988
97,224260,203003
97,224249,203024
97,224251,202969
97,224255,203066
97,224243,203064
97,224268,202996
97,224261,203028
98,224276,203053
98,224297,203047
98,224303,203061
98,224297,203042
98,224298,203071
98,224302,203034
98,224286,202972
98,224297,203007
98,224300,202966
98,224286,203002
98,224282,202945
98,224285,202922
98,224294,202959
98,224277,203007
98,224306,202966
98,224312,203009
98,224309,202959
98,224315,202970
98,224321,203005
98,224322,203075
98,224324,202968
98,224329,203026
98,224334,202942
98,224327,202993
98,224329,202982
98,224332,203008
98,224327,202996
98,224332,202993
98,224336,203012
98,224329,202977
98,224334,202974
98,224340,202933
99,224334,202992
99,224347,202942
99,224356,202984
99,224346,202914
99,224359,202930
99,224355,202983
99,224332,202944
99,224352,202994
99,224325,202958
99,224314,202998
99,224283,202861
99,224269,202898
99,224244,202942
99,224210,202890
99,224199,202908
99,224177,202953
99,224158,202915
99,224136,202882
99,224124,202839
99,224069,202850
99,224083,202804
99,224082,202875
99,224071,202823
99,224083,202878
99,224090,202833
99,224086,202804
99,224118,202901
99,224120,202944
99,224109,202941
99,224129,202955
99,224125,202874
99,224125,202945
100,224121,202932
100,224125,202929
100,224124,202890
100,224137,202896
100,224136,202927
100,224148,202910
100,224151,203020
100,224172,202978
100,224152,202975
100,224180,202885
100,224198,202941
100,224184,202895
100,224185,202899
100,224178,202915
100,224182,202901
100,224170,202890
100,224175,202979
100,224176,202945
100,224160,202923
100,224170,202928
100,224162,202985
100,224147,202926
100,224158,202876
100,224152,202923
100,224154,202891
100,224157,202872
100,224160,202883
100,224160,202918
100,224166,202888
100,224175,202872
100,224173,202891
100,224180,202876
101,224183,202935
101,224209,202895
101,224215,202919
101,224214,202976
101,224202,202912
101,224215,202891
101,224217,202864
101,224217,202910
101,224226,202920
101,224217,202929
101,224216,202883
101,224222,202904
101,224225,202916
101,224227,202931
101,224228,202889
101,224233,202910
101,224242,202927
101,224235,202921
101,224248,202914
101,224257,202902
101,224251,202927
101,224251,202886
101,224289,202929
101,224266,202923
101,224288,202919
101,224283,202905
101,224271,202935
101,224276,202943
101,224282,202961
101,224284,202900
101,224260,202870
101,224278,202927
102,224276,202892
102,224271,202904
102,224321,202985
102,224318,202919
102,224311,202886
102,224327,202955
102,224311,202921
102,224311,202894
102,224320,202924
102,224321,202987
102,224323,202912
102,224317,203053
102,224322,202965
102,224315,202913
102,224319,202950
102,224332,202964
102,224310,202911
102,224315,202920
102,224305,203020
102,224286,202977
102,224269,202995
102,224238,202991
102,224211,202954
102,224192,202993
102,224176,202873
102,224157,202853
102,224120,202910
102,224077,202886
102,224081,202865
102,224071,202838
102,224078,202834
102,224072,202852
103,224124,202860
103,224121,202818
103,224129,202862
103,224124,202847
103,224137,202823
103,224130,202837
103,224130,202845
103,224130,202844
103,224131,202883
103,224121,202794
103,224115,202848
103,224127,202897
103,224117,202872
103,224113,202930
103,224119,202858
103,224119,202903
103,224125,202858
103,224155,202834
103,224144,202877
103,224130,202922
103,224151,202891
103,224162,202862
103,224144,202898
103,224143,202886
103,224149,202878
103,224142,202867
103,224137,202782
103,224134,202849
103,224138,202871
103,224142,202816
103,224121,202848
103,224125,202776
104,224144,202845
104,224144,202862
104,224139,202840
104,224134,202826
104,224145,202831
104,224131,202851
104,224138,202840
104,224133,202901
104,224124,202788
104,224132,202875
104,224138,202909
104,224115,202813
104,224127,202856
104,224137,202785
104,224142,202894
104,224134,202859
104,224155,202887
104,224153,202842
104,224143,202820
104,224160,202885
104,224166,202819
104,224177,202883
104,224171,202848
104,224186,202850
104,224198,202836
104,224200,202954
104,224213,202970
104,224209,202963
104,224202,202939
104,224201,202913
104,224200,202940
104,224199,202928
105,224210,202902
105,224209,202973
105,224224,202911
105,224242,202943
105,224247,202973
105,224226,202959
105,224240,202920
105,224248,202976
105,224250,202979
105,224246,203005
105,224254,202990
105,224259,202983
105,224257,203067
105,224260,203025
105,224243,202986
105,224257,202951
105,224270,203014
105,224246,202968
105,224257,203007
105,224263,202961
105,224258,202936
105,224267,202945
105,224263,202959
105,224258,202959
105,224247,202912
105,224243,202954
105,224220,202993
105,224218,202922
105,224207,202965
105,224181,202899
105,224170,202918
105,224141,202920
106,224126,202923
106,224027,202895
106,224034,202889
106,224028,202847
106,224022,202852
106,224023,202877
106,224039,202838
106,224036,202863
106,224046,202909
106,224064,202862
106,224079,202823
106,224088,202918
106,224101,202932
106,224094,202879
106,224105,202845
106,224111,202902
106,224112,202925
106,224107,202915
106,224112,202907
106,224116,202910
106,224114,202964
106,224124,202923
106,224116,202870
106,224110,202908
106,224128,202893
106,224139,202975
106,224131,202924
106,224147,202874
106,224150,202915
106,224145,202912
106,224150,202884
106,224167,202953
107,224154,202992
107,224130,202914
107,224131,202906
107,224149,202933
107,224138,202948
107,224145,202896
107,224136,202948
107,224156,202906
107,224152,202911
107,224150,202911
107,224153,202947
107,224146,202858
107,224165,203017
107,224162,202884
107,224173,202956
107,224177,202910
107,224169,202957
107,224178,202903
107,224178,202902
107,224182,202924
107,224184,202899
107,224185,203050
107,224181,202908
107,224194,202915
107,224206,202964
107,224190,202993
107,224190,202930
107,224194,202978
107,224215,202938
107,224196,202896
107,224198,202960
107,224204,202941
108,224196,202908
108,224224,202882
108,224224,202938
108,224233,202927
108,224232,202922
108,224238,202888
108,224251,202955
108,224252,202929
108,224246,202933
108,224248,202958
108,224260,202908
108,224256,202905
108,224249,202847
108,224258,202898
108,224248,202887
108,224257,202895
108,224275,202963
108,224260,202923
108,224258,202907
108,224274,202988
108,224273,202874
108,224273,202943
108,224280,202923
108,224277,202954
108,224271,202885
108,224264,202820
108,224259,202938
108,224258,202908
108,224266,202942
108,224261,202920
108,224267,202943
108,224257,202891
109,224242,202868
109,224121,202906
109,224104,202907
109,224085,202887
109,224065,202861
109,224036,202841
109,224053,202832
109,224029,202844
109,224019,202864
109,224013,202939
109,224016,202940
109,224019,202841
109,224033,202872
109,224023,202935
109,224024,202920
109,224041,202958
109,224062,202911
109,224052,202953
109,224058,202885
109,224058,202903
109,224063,202837
109,224069,202848
109,224092,202915
109,224090,202897
109,224097,202826
109,224093,202862
109,224113,202908
109,224097,202862
109,224099,202900
109,224104,202902
109,224100,202892
109,224105,202864
110,224140,202873
110,224137,202774
110,224132,202820
110,224128,202817
110,224132,202762
110,224120,202750
110,224135,202790
110,224120,202693
110,224112,202760
110,224112,202763
110,224105,202778
110,224106,202767
110,224100,202770
110,224107,202820
110,224094,202721
110,224102,202709
110,224102,202754
110,224099,202773
110,224117,202782
110,224106,202760
110,224112,202742
110,224104,202726
110,224116,202758
110,224103,202673
110,224110,202697
110,224125,202706
110,224117,202680
110,224126,202737
110,224136,202759
110,224133,202791
110,224134,202718
110,224150,202708
111,224154,202703
111,224171,202758
111,224167,202792
111,224155,202750
111,224177,202816
111,224182,202792
111,224181,202783
111,224177,202789
111,224197,202847
111,224189,202801
111,224186,202758
111,224189,202740
111,224178,202847
111,224183,202805
111,224178,202753
111,224182,202797
111,224177,202706
111,224186,202753
111,224182,202769
111,224178,202780
111,224180,202809
111,224187,202800
111,224189,202768
111,224191,202742
111,224216,202821
111,224212,202706
111,224228,202767
111,224217,202837
111,224216,202832
111,224222,202751
111,224226,202818
111,224216,202801
112,224218,202784
112,224188,202840
112,224170,202838
112,224144,202835
112,224127,202847
112,224092,202783
112,224075,202837
112,224051,202813
112,224045,202776
112,224005,202804
112,223992,202786
112,223966,202786
112,223957,202780
112,223962,202775
112,223941,202752
112,223926,202748
112,223945,202762
112,223948,202819
112,223930,202807
112,223952,202763
112,223968,202764
112,223957,202788
112,223957,202746
112,223960,202754
112,223963,202788
112,223986,202788
112,223997,202859
112,223993,202824
112,223976,202790
112,223973,202779
112,223989,202846
112,223986,202782
113,223980,202824
113,223984,202757
113,223991,202783
113,223996,202834
113,223992,202808
113,224002,202772
113,224016,202796
113,224004,202840
113,224005,202839
113,224006,202819
113,224010,202794
113,223991,202874
113,223991,202758
113,223995,202789
113,223982,202717
113,223982,202801
113,223983,202789
113,223985,202789
113,223992,202777
113,223989,202809
113,223987,202835
113,224010,202813
113,224018,202747
113,224015,202815
113,224019,202890
113,224032,202814
113,224029,202823
113,224031,202759
113,224034,202779
113,224028,202807
113,224026,202778
113,224045,202799
114,224045,202785
114,224050,202772
114,224058,202811
114,224070,202788
114,224067,202765
114,224079,202830
114,224085,202850
114,224079,202772
114,224082,202763
114,224086,202750
114,224082,202766
114,224083,202773
114,224090,202780
114,224091,202815
114,224104,202779
114,224094,202793
114,224103,202807
114,224087,202779
114,224094,202806
114,224081,202820
114,224077,202772
114,224089,202802
114,224087,202799
114,224085,202737
114,224103,202754
114,224107,202797
114,224110,202796
114,224121,202822
114,224124,202841
114,224114,202852
114,224134,202850
114,224140,202859
115,224145,202862
115,224130,202788
115,224136,202839
115,224127,202842
115,224132,202830
115,224146,202812
115,224129,202777
115,224135,202794
115,224129,202764
115,224127,202820
115,224112,202812
115,224100,202792
115,224083,202797
115,224053,202779
115,224041,202773
115,224021,202756
115,223973,202791
115,223960,202742
115,223935,202771
115,223896,202727
115,223898,202781
115,223873,202731
115,223877,202745
115,223852,202745
115,223852,202711
115,223844,202731
115,223840,202689
115,223832,202703
115,223847,202694
115,223873,202675
115,223883,202637
115,223876,202633
116,223883,202686
116,223882,202759
116,223880,202695
116,223888,202731
116,223876,202713
116,223875,202659
116,223884,202660
116,223874,202718
116,223891,202735
116,223888,202707
116,223872,202733
116,223880,202662
116,223870,202725
116,223879,202791
116,223888,202714
116,223891,202730
116,223892,202687
116,223896,202683
116,223895,202671
116,223897,202675
116,223908,202648
116,223888,202662
116,223867,202681
116,223895,202720
116,223877,202670
116,223864,202669
116,223877,202665
116,223872,202715
116,223877,202726
116,223872,202724
116,223875,202715
116,223873,202698
117,223887,202719
117,223888,202664
117,223887,202689
117,223892,202677
117,223878,202703
117,223884,202706
117,223878,202764
117,223888,202688
117,223874,202685
117,223896,202686
117,223888,202676
117,223896,202634
117,223902,202732
117,223903,202689
117,223928,202660
117,223926,202696
117,223931,202674
117,223923,202600
117,223927,202676
117,223932,202642
117,223926,202711
117,223944,202631
117,223944,202614
117,223934,202642
117,223934,202602
117,223941,202677
117,223938,202657
117,223932,202679
117,223952,202751
117,223954,202699
117,223938,202721
117,223959,202739
118,223953,202664
118,223989,202733
118,223987,202709
118,223995,202745
118,223998,202741
118,224000,202708
118,224004,202722
118,224000,202733
118,224000,202751
118,223996,202778
118,223990,202728
118,224000,202745
118,224000,202786
118,223993,202677
118,223994,202757
118,223983,202760
118,223973,202711
118,223979,202725
118,223957,202745
118,223947,202728
118,223927,202763
118,223898,202747
118,223893,202714
118,223859,202668
118,223849,202653
118,223824,202671
118,223794,202620
118,223782,202599
118,223771,202610
118,223751,202667
118,223745,202663
118,223754,202683
119,223746,202682
119,223736,202653
119,223739,202623
119,223743,202620
119,223739,202636
119,223747,202602
119,223747,202617
119,223761,202653
119,223753,202597
119,223761,202630
119,223767,202643
119,223757,202666
119,223758,202624
119,223752,202627
119,223758,202670
119,223760,202598
119,223758,202612
119,223771,202620
119,223753,202591
119,223759,202584
119,223774,202640
119,223785,202598
119,223766,202610
119,223776,202620
119,223778,202646
119,223771,202649
119,223779,202646
119,223774,202615
119,223777,202640
119,223768,202620
119,223782,202644
119,223763,202646
120,223764,202636
120,223783,202611
120,223782,202624
120,223778,202633
120,223787,202634
120,223781,202655
120,223781,202681
120,223780,202695
120,223775,202713
120,223785,202724
120,223800,202689
120,223791,202690
120,223795,202689
120,223800,202675
120,223797,202643
120,223797,202672
120,223804,202634
120,223819,202634
120,223814,202616
120,223817,202657
120,223824,202645
120,223820,202669
120,223819,202655
120,223842,202664
120,223821,202678
120,223818,202668
120,223825,202689
120,223830,202662
120,223823,202653
120,223837,202631
120,223835,202704
120,223825,202642
121,223835,202699
121,223846,202663
121,223840,202644
121,223847,202627
121,223851,202606
121,223857,202640
121,223863,202587
121,223862,202627
121,223858,202634
121,223854,202664
121,223871,202584
121,223860,202663
121,223875,202559
121,223877,202667
121,223888,202666
121,223879,202661
121,223887,202682
121,223892,202721
121,223893,202660
121,223897,202612
121,223904,202687
121,223894,202618
121,223894,202582
121,223906,202632
121,223887,202663
121,223878,202661
121,223900,202579
121,223890,202649
121,223884,202606
121,223891,202654
121,223913,202696
121,223906,202614
122,223775,202643
122,223755,202627
122,223732,202614
122,223699,202578
122,223681,202591
122,223652,202549
122,223645,202554
122,223630,202618
122,223620,202595
122,223618,202525
122,223618,202513
122,223622,202559
122,223617,202508
122,223637,202573
122,223643,202547
122,223635,202569
122,223639,202574
122,223644,202590
122,223652,202541
122,223650,202596
122,223659,202550
122,223654,202477
122,223653,202543
122,223672,202604
122,223678,202555
122,223671,202533
122,223689,202611
122,223683,202554
122,223680,202500
122,223681,202467
122,223695,202465
122,223692,202514
123,223673,202545
123,223675,202507
123,223679,202474
123,223677,202486
123,223670,202463
123,223671,202486
123,223668,202462
123,223654,202467
123,223665,202484
123,223674,202420
123,223655,202424
123,223666,202469
123,223665,202482
123,223664,202481
123,223674,202450
123,223669,202464
123,223665,202484
123,223674,202524
123,223667,202460
123,223676,202473
123,223667,202490
123,223671,202558
123,223664,202552
123,223655,202511
123,223666,202577
123,223669,202595
123,223660,202456
123,223673,202501
123,223673,202434
123,223666,202501
123,223680,202414
123,223675,202472
124,223691,202474
124,223707,202505
124,223705,202504
124,223705,202471
124,223707,202502
124,223709,202468
124,223692,202472
124,223715,202487
124,223714,202496
124,223713,202493
124,223730,202435
124,223728,202498
124,223724,202453
124,223724,202457
124,223725,202455
124,223720,202467
124,223712,202474
124,223720,202483
124,223729,202457
124,223723,202497
124,223751,202452
124,223754,202467
124,223745,202436
124,223756,202482
124,223752,202465
124,223750,202504
124,223776,202475
124,223785,202419
124,223767,202495
124,223764,202437
124,223774,202459
124,223766,202487
125,223756,202422
125,223761,202451
125,223728,202411
125,223724,202370
125,223704,202401
125,223674,202391
125,223671,202398
125,223645,202402
125,223614,202408
125,223605,202382
125,223587,202368
125,223563,202340
125,223548,202338
125,223539,202345
125,223526,202379
125,223521,202325
125,223513,202373
125,223518,202419
125,223517,202371
125,223524,202359
125,223520,202341
125,223524,202337
125,223524,202326
125,223545,202361
125,223551,202399
125,223561,202354
125,223572,202355
125,223554,202424
125,223545,202377
125,223562,202380
125,223557,202348
125,223561,202408
126,223605,202392
126,223602,202377
126,223626,202433
126,223625,202374
126,223610,202384
126,223621,202372
126,223618,202414
126,223616,202323
126,223616,202409
126,223524,202337
126,223613,202417
126,223600,202375
126,223610,202386
126,223604,202364
126,223590,202410
126,223599,202367
126,223596,202396
126,223587,202404
126,223574,202350
126,223595,202399
126,223595,202454
126,223585,202357
126,223592,202356
126,223592,202368
126,223600,202369
126,223615,202407
126,223629,202403
126,223637,202319
126,223637,202312
126,223637,202347
126,223621,202373
126,223631,202396
127,223641,202479
127,223649,202413
127,223638,202440
127,223619,202363
127,223632,202324
127,223641,202370
127,223634,202321
127,223631,202416
127,223637,202299
127,223644,202344
127,223634,202321
127,223648,202354
127,223650,202394
127,223655,202398
127,223654,202361
127,223648,202365
127,223643,202381
127,223651,202398
127,223641,202351
127,223654,202368
127,223646,202367
127,223652,202363
127,223654,202401
127,223667,202399
127,223657,202360
127,223659,202366
127,223654,202376
127,223663,202364
127,223691,202503
127,223669,202395
127,223681,202348
127,223671,202341
128,223683,202381
128,223677,202418
128,223677,202365
128,223674,202375
128,223669,202399
128,223670,202308
128,223658,202357
128,223684,202355
128,223671,202419
128,223668,202411
128,223669,202344
128,223664,202412
128,223638,202392
128,223630,202391
128,223632,202463
128,223603,202417
128,223573,202453
128,223562,202457
128,223535,202377
128,223519,202362
128,223498,202388
128,223482,202394
128,223454,202387
128,223444,202366
128,223448,202361
128,223421,202364
128,223413,202404
128,223407,202385
128,223404,202369
128,223392,202369
128,223403,202301
128,223411,202372
129,223447,202365
129,223443,202351
129,223437,202353
129,223447,202297
129,223438,202353
129,223438,202351
129,223443,202331
129,223439,202337
129,223448,202356
129,223451,202383
129,223459,202350
129,223467,202355
129,223477,202343
129,223492,202350
129,223489,202348
129,223493,202310
129,223491,202330
129,223502,202340
129,223504,202382
129,223500,202406
129,223502,202393
129,223513,202378
129,223490,202382
129,223502,202395
129,223492,202376
129,223483,202374
129,223482,202368
129,223474,202437
129,223468,202335
129,223462,202336
129,223471,202414
129,223471,202340
130,223489,202399
130,223490,202362
130,223485,202366
130,223489,202324
130,223493,202320
130,223490,202369
130,223499,202277
130,223496,202426
130,223489,202397
130,223488,202428
130,223522,202322
130,223514,202414
130,223501,202327
130,223509,202325
130,223516,202356
130,223503,202314
130,223508,202296
130,223514,202315
130,223512,202341
130,223507,202343
130,223511,202319
130,223512,202376
130,223513,202340
130,223520,202394
130,223520,202439
130,223510,202296
130,223518,202303
130,223516,202408
130,223520,202357
130,223518,202319
130,223515,202420
130,223525,202370
131,223532,202376
131,223535,202407
131,223530,202376
131,223546,202338
131,223535,202350
131,223539,202307
131,223558,202358
131,223551,202397
131,223558,202368
131,223560,202358
131,223563,202374
131,223553,202361
131,223566,202380
131,223558,202288
131,223551,202346
131,223568,202295
131,223574,202367
131,223558,202369
131,223556,202312
131,223579,202329
131,223572,202334
131,223560,202361
131,223566,202340
131,223560,202373
131,223549,202308
131,223541,202297
131,223527,202327
131,223508,202354
131,223490,202329
131,223460,202333
131,223444,202407
131,223412,202332
132,223405,202368
132,223280,202276
132,223270,202346
132,223269,202235
132,223284,202249
132,223282,202265
132,223283,202259
132,223285,202214
132,223288,202227
132,223302,202167
132,223291,202277
132,223293,202247
132,223310,202222
132,223309,202227
132,223314,202245
132,223312,202187
132,223320,202163
132,223301,202136
132,223318,202164
132,223301,202183
132,223283,202189
132,223305,202210
132,223310,202228
132,223307,202139
132,223303,202211
132,223317,202214
132,223312,202198
132,223309,202191
132,223320,202142
132,223318,202171
132,223312,202200
132,223311,202197
133,223288,202239
133,223284,202277
133,223263,202182
133,223273,202278
133,223264,202165
133,223273,202189
133,223276,202185
133,223257,202216
133,223273,202157
133,223274,202202
133,223266,202196
133,223266,202296
133,223265,202198
133,223271,202170
133,223268,202171
133,223257,202203
133,223282,202179
133,223272,202221
133,223266,202203
133,223269,202140
133,223281,202147
133,223277,202166
133,223285,202210
133,223278,202149
133,223289,202185
133,223295,202225
133,223294,202191
133,223292,202209
133,223307,202199
133,223300,202200
133,223317,202227
133,223320,202167
134,223309,202201
134,223312,202253
134,223315,202255
134,223293,202273
134,223308,202210
134,223305,202209
134,223298,202172
134,223306,202210
134,223306,202210
134,223307,202208
134,223309,202195
134,223314,202190
134,223310,202212
134,223312,202145
134,223322,202188
134,223329,202235
134,223325,202225
134,223327,202228
134,223371,202193
134,223362,202178
134,223362,202193
134,223352,202168
134,223354,202199
134,223362,202222
134,223356,202199
134,223360,202237
134,223372,202254
134,223365,202284
134,223367,202245
134,223376,202225
134,223362,202246
134,223365,202196
135,223378,202255
135,223311,202155
135,223276,202134
135,223262,202148
135,223231,202134
135,223195,202145
135,223178,202136
135,223153,202092
135,223137,202150
135,223139,202052
135,223111,202190
135,223101,202142
135,223080,202082
135,223086,202086
135,223072,202142
135,223073,202095
135,223076,202039
135,223079,202101
135,223076,202052
135,223081,202060
135,223091,202065
135,223087,202092
135,223087,202064
135,223092,202123
135,223090,202084
135,223092,202071
135,223088,202103
135,223085,202095
135,223086,202109
135,223095,202120
135,223081,202068
135,223072,202117
136,223083,202088
136,223063,202036
136,223082,202135
136,223088,202063
136,223087,202127
136,223088,202057
136,223097,202068
136,223089,202046
136,223083,202079
136,223081,202045
136,223086,202068
136,223062,202085
136,223062,202124
136,223069,202109
136,223063,202134
136,223052,202106
136,223041,202148
136,223040,202120
136,223048,202079
136,223036,202119
136,223065,202077
136,223046,202079
136,223054,202073
136,223046,202065
136,223049,202072
136,223047,202087
136,223058,202055
136,223073,202101
136,223056,202061
136,223068,202065
136,223054,202049
136,223060,201982
137,223041,202055
137,223037,202049
137,223049,202022
137,223049,202061
137,223050,202036
137,223066,202050
137,223045,202073
137,223040,202082
137,223040,202055
137,223036,202097
137,223046,202106
137,223042,202126
137,223055,202055
137,223051,202088
137,223046,202079
137,223069,202043
137,223057,202063
137,223057,202128
137,223061,202109
137,223065,202105
137,223069,202131
137,223061,202078
137,223071,202069
137,223066,202071
137,223067,202022
137,223080,202021
137,223087,202063
137,223077,202044
137,223078,202027
137,223079,202043
137,223080,202046
137,223086,202010
138,223090,202088
138,223088,202006
138,223108,202060
138,223098,202111
138,223098,202076
138,223107,202023
138,223107,202092
138,223106,202092
138,223107,202084
138,223118,202088
138,223106,202084
138,223118,202071
138,223126,202058
138,223116,202026
138,223120,202049
138,223131,202038
138,223130,202032
138,223150,202030
138,223138,202090
138,223135,202089
138,223127,202001
138,223135,202082
138,223118,202116
138,223086,202095
138,223085,202064
138,223072,202078
138,223041,202020
138,223006,202012
138,222997,202059
138,222961,202067
138,222931,202023
138,222926,202037
139,222900,201995
139,222870,201982
139,222868,201997
139,222842,201994
139,222861,201967
139,222859,201975
139,222872,201980
139,222870,201946
139,222876,201947
139,222889,201914
139,222891,201975
139,222900,201917
139,222894,201940
139,222885,201951
139,222893,201937
139,222892,201953
139,222892,201933
139,222896,202006
139,222896,201980
139,222877,201945
139,222894,201910
139,222895,201891
139,222915,201937
139,222913,201916
139,222929,202011
139,222930,201932
139,222924,201941
139,222947,201946
139,222945,201940
139,222939,201907
139,222946,201919
139,222943,201918
140,222942,201887
140,222938,201899
140,222937,201941
140,222937,201915
140,222941,201936
140,222943,201956
140,222955,201927
140,222965,201976
140,222949,202020
140,222955,201954
140,222967,202015
140,222913,201916
140,222962,201909
140,222983,202023
140,222978,201936
140,222975,201984
140,222975,201971
140,222980,202003
140,222981,202046
140,222985,202012
140,222999,202005
140,222999,201958
140,222985,202015
140,222991,201996
140,223009,201971
140,223012,202001
140,223007,202006
140,223012,201980
140,223012,201999
140,223016,201969
140,223021,201938
140,223025,202028
141,223028,201980
141,223026,201969
141,223029,201946
141,223043,201978
141,223033,201961
141,223030,201962
141,223055,201994
141,223045,201991
141,223045,201914
141,223049,201940
141,223054,202066
141,223055,202030
141,223055,201979
141,223053,202014
141,223071,202019
141,223068,202027
141,223081,201986
141,223083,202019
141,223092,202036
141,223089,202011
141,223110,202041
141,223094,202049
141,223102,202048
141,223097,202012
141,223101,202022
141,223097,201996
141,223102,202066
141,223114,202029
141,223092,202007
141,223109,202017
141,223109,202027
141,223104,202070
142,223113,202058
142,223107,202017
142,223116,201981
142,223115,202092
142,223102,201997
142,223096,202040
142,223092,202018
142,223074,202028
142,223062,201936
142,223029,202013
142,223023,202049
142,222982,202004
142,222971,201968
142,222872,201899
142,222848,201918
142,222837,201976
142,222821,201905
142,222824,201925
142,222806,201868
142,222799,201923
142,222810,201869
142,222782,201915
142,222798,201925
142,222802,201915
142,222799,201943
142,222791,201911
142,222803,201949
142,222805,201912
142,222803,201874
142,222818,201923
142,222811,201933
142,222814,201893
143,222829,201878
143,222824,201948
143,222826,201996
143,222829,201961
143,222824,201941
143,222825,201973
143,222834,201950
143,222828,201910
143,222846,201879
143,222824,201925
143,222840,201940
143,222845,201946
143,222851,201994
143,222844,201908
143,222834,201859
143,222836,201916
143,222827,201871
143,222826,201908
143,222824,201904
143,222826,201908
143,222813,201933
143,222804,201845
143,222791,201908
143,222789,201836
143,222788,201850
143,222798,201935
143,222781,201997
143,222775,201974
143,222783,201876
143,222781,201874
143,222774,201867
143,222772,201930
144,222785,201912
144,222776,201910
144,222785,201900
144,222782,201916
144,222772,201901
144,222778,201867
144,222775,201927
144,222790,201920
144,222791,201918
144,222784,202024
144,222795,202074
144,222797,201960
144,222793,202005
144,222804,201982
144,222791,201922
144,222787,201905
144,222804,201910
144,222800,201928
144,222822,201916
144,222815,201910
144,222831,201930
144,222832,201933
144,222825,201912
144,222827,201917
144,222828,201930
144,222838,201926
144,222840,201915
144,222842,201883
144,222840,201894
144,222852,201996
144,222851,201957
144,222859,201916
145,222866,201916
145,222868,201921
145,222877,201922
145,222849,201977
145,222864,201999
145,222873,202056
145,222866,201939
145,222857,201961
145,222859,201869
145,222874,201942
145,222865,201944
145,222872,201948
145,222884,201938
145,222890,201957
145,222884,202025
145,222899,201971
145,222902,202008
145,222888,201945
145,222903,201978
145,222907,201972
145,222894,201974
145,222915,201952
145,222909,201910
145,222905,202003
145,222902,201923
145,222900,201954
145,222904,201902
145,222897,201877
145,222905,201963
145,222910,201968
145,222904,201969
145,222904,202048
146,222911,202009
146,222738,201879
146,222718,201833
146,222699,201845
146,222637,201824
146,222637,201913
146,222626,201836
146,222629,201815
146,222631,201865
146,222618,201863
146,222613,201911
146,222622,201870
146,222625,201883
146,222618,201876
146,222627,201894
146,222612,201911
146,222622,201866
146,222607,201849
146,222608,201873
146,222597,201846
146,222596,201887
146,222614,201909
146,222603,201824
146,222599,201848
146,222599,201885
146,222596,201896
146,222598,201835
146,222596,201873
146,222588,201858
146,222586,201870
146,222601,201967
146,222598,201904
147,222589,201935
147,222598,201948
147,222595,201904
147,222603,201892
147,222585,201906
147,222569,201924
147,222577,201918
147,222579,201835
147,222573,201864
147,222576,201831
147,222573,201933
147,222585,201874
147,222574,201877
147,222589,201904
147,222594,201889
147,222602,201886
147,222603,201919
147,222620,201927
147,222596,201900
147,222596,201911
147,222601,201910
147,222593,201868
147,222604,201920
147,222599,201885
147,222588,201904
147,222587,201866
147,222594,201858
147,222588,201943
147,222594,201916
147,222604,201863
147,222614,201884
147,222597,201840
148,222595,201832
148,222595,201886
148,222606,201857
148,222612,201860
148,222602,201933
148,222609,201856
148,222611,201952
148,222617,201897
148,222610,201892
148,222634,201882
148,222634,201852
148,222624,201894
148,222635,201928
148,222632,201898
148,222637,201914
148,222631,201980
148,222638,201955
148,222654,201901
148,222640,201910
148,222641,201932
148,222651,201890
148,222652,201914
148,222655,201938
148,222642,201901
148,222666,201932
148,222656,201911
148,222671,201902
148,222675,201914
148,222668,201897
148,222674,201928
148,222661,201979
148,222675,201947
149,222689,201860
149,222708,201892
149,222687,201878
149,222701,201877
149,222709,201977
149,222703,201922
149,222707,201961
149,222701,201887
149,222701,201915
149,222705,201953
149,222727,201994
149,222706,201945
149,222714,201947
149,222725,202013
149,222718,201912
149,222703,201941
149,222717,201908
149,222699,201945
149,222681,201913
149,222684,202017
149,222663,201978
149,222643,201863
149,222633,201912
149,222605,201955
149,222568,201918
149,222554,201882
149,222518,201887
149,222497,201840
149,222475,201823
149,222468,201872
149,222452,201816
149,222440,201859
150,222406,201837
150,222399,201772
150,222409,201809
150,222407,201804
150,222391,201904
150,222407,201814
150,222415,201815
150,222404,201841
150,222405,201784
150,222417,201813
150,222424,201833
150,222400,201764
150,222407,201805
150,222399,201820
150,222389,201815
150,222407,201744
150,222409,201775
150,222399,201759
150,222401,201742
150,222406,201734
150,222395,201689
150,222392,201729
150,222392,201748
150,222409,201752
150,222417,201710
150,222438,201686
150,222422,201727
150,222426,201732
150,222428,201714
150,222442,201763
150,222443,201756
150,222436,201690
151,222450,201750
151,222417,201779
151,222428,201728
151,222421,201768
151,222412,201740
151,222421,201759
151,222421,201739
151,222428,201680
151,222442,201689
151,222428,201737
151,222441,201777
151,222437,201707
151,222431,201689
151,222452,201752
151,222453,201755
151,222460,201756
151,222464,201787
151,222457,201751
151,222454,201727
151,222462,201775
151,222464,201793
151,222460,201708
151,222473,201787
151,222474,201819
151,222475,201787
151,222514,201809
151,222498,201807
151,222484,201709
151,222494,201743
151,222514,201805
151,222511,201733
151,222526,201769
152,222531,201819
152,222597,201796
152,222583,201739
152,222577,201775
152,222592,201807
152,222581,201801
152,222573,201804
152,222599,201791
152,222580,201822
152,222587,201824
152,222586,201794
152,222606,201817
152,222596,201859
152,222596,201844
152,222626,201778
152,222622,201811
152,222627,201844
152,222640,201807
152,222649,201865
152,222656,201884
152,222658,201794
152,222664,201822
152,222671,201880
152,222667,201898
152,222688,201830
152,222695,201855
152,222704,201830
152,222707,201925
152,222699,201826
152,222718,201879
152,222715,201866
152,222708,201869
153,222722,201913
153,222759,201882
153,222779,201864
153,222767,201835
153,222773,201900
153,222789,201852
153,222790,201929
153,222786,201822
153,222791,201907
153,222806,201894
153,222788,201885
153,222794,201957
153,222810,201902
153,222790,201843
153,222802,201907
153,222798,201850
153,222803,201864
153,222790,201907
153,222784,201858
153,222792,201903
153,222762,201867
153,222754,201931
153,222747,201824
153,222703,201902
153,222694,201861
153,222692,201904
153,222653,201859
153,222645,201825
153,222629,201829
153,222611,201875
153,222594,201856
153,222562,201863
154,222631,201885
154,222643,201860
154,222623,201846
154,222629,201867
154,222618,201856
154,222644,201858
154,222634,201809
154,222633,201872
154,222640,201829
154,222640,201896
154,222631,201869
154,222624,201855
154,222625,201847
154,222634,201844
154,222641,201924
154,222641,201913
154,222661,201875
154,222667,201922
154,222662,201916
154,222671,201903
154,222695,201916
154,222689,201883
154,222686,201891
154,222694,201914
154,222688,201936
154,222695,201906
154,222712,201918
154,222697,201923
154,222708,201952
154,222705,201897
154,222707,201954
154,222717,201887
155,222731,201889
155,222732,201886
155,222723,201911
155,222742,201922
155,222748,201887
155,222743,201892
155,222738,201901
155,222732,201870
155,222739,201915
155,222752,201918
155,222746,201912
155,222759,201898
155,222745,201911
155,222761,201920
155,222744,201885
155,222767,201910
155,222758,201919
155,222781,201876
155,222761,201862
155,222775,201951
155,222784,201917
155,222785,201899
155,222779,201898
155,222794,201948
155,222797,201940
155,222787,201917
155,222799,201969
155,222792,201961
155,222798,201991
155,222810,201937
155,222813,201927
155,222812,201963
156,222837,202048
156,222841,201996
156,222855,202006
156,222850,201992
156,222858,202026
156,222857,201998
156,222869,201998
156,222859,202086
156,222865,202040
156,222883,202066
156,222885,202051
156,222877,201990
156,222880,202030
156,222885,202044
156,222888,202018
156,222888,202031
156,222896,202036
156,222892,202006
156,222915,202035
156,222904,202048
156,222903,202011
156,222919,202004
156,222905,202032
156,222907,201988
156,222923,202060
156,222910,202057
156,222920,202042
156,222924,202028
156,222934,202062
156,222929,202045
156,222938,202085
156,222930,201984
157,222975,202176
157,222965,202102
157,222974,202101
157,222961,202105
157,222966,202067
157,222977,202048
157,222978,202112
157,222969,202095
157,222987,202120
157,222996,202138
157,222994,202129
157,222997,202063
157,222985,202073
157,222985,202057
157,222954,202041
157,222964,202069
157,222953,202108
157,222921,202077
157,222904,202030
157,222889,202037
157,222868,202021
157,222848,202025
157,222835,201988
157,222815,202020
157,222796,202026
157,222789,202054
157,222777,202041
157,222771,201996
157,222766,202031
157,222777,202067
157,222757,202036
157,222763,202001
158,222768,202011
158,222796,201955
158,222811,202008
158,222803,202009
158,222800,201977
158,222802,201958
158,222815,202067
158,222810,201982
158,222822,202000
158,222821,201999
158,222833,202096
158,222823,202048
158,222817,202081
158,222816,202048
158,222820,202026
158,222837,202098
158,222829,202116
158,222849,202077
158,222861,202012
158,222855,202037
158,222871,202105
158,222870,202054
158,222886,202097
158,222884,202017
158,222878,202036
158,222886,202052
158,222900,202068
158,222896,202065
158,222895,202015
158,222884,202033
158,222884,202058
158,222885,202059
159,222860,202022
159,222871,201998
159,222867,202029
159,222867,202057
159,222859,202043
159,222872,202029
159,222884,202052
159,222876,201991
159,222893,202052
159,222883,202090
159,222887,202064
159,222880,202021
159,222881,202021
159,222874,202051
159,222879,201987
159,222892,202041
159,222882,202063
159,222873,202044
159,222881,201994
159,222888,202045
159,222884,202074
159,222894,202059
159,222898,202099
159,222886,202057
159,222890,202111
159,222890,202052
159,222900,202028
159,222907,202063
159,222902,202042
159,222896,202045
159,222905,202042
159,222920,202071
160,222927,202098
160,222938,202076
160,222940,202073
160,222942,202054
160,222936,202043
160,222940,202107
160,222935,202074
160,222940,202041
160,222945,202084
160,222950,202081
160,222946,202087
160,222968,202102
160,222957,202166
160,222950,202144
160,222963,202139
160,222968,202136
160,222955,202167
160,222960,202187
160,222973,202124
160,222969,202179
160,222962,202108
160,222980,202134
160,222964,202137
160,222974,202073
160,222972,202056
160,222992,202057
160,222997,202132
160,222994,202105
160,223000,202138
160,223001,202118
160,223009,202089
160,223019,202132
161,223020,202140
161,223044,202119
161,223042,202108
161,223037,202173
161,223033,202130
161,223035,202119
161,223045,202083
161,223039,202144
161,223038,202153
161,223036,202152
161,223026,202126
161,223041,202133
161,223040,202135
161,223031,202101
161,223053,202186
161,223042,202139
161,223038,202137
161,223038,202160
161,223034,202180
161,223019,202163
161,223010,202057
161,223003,202123
161,222975,202105
161,222945,202124
161,222934,202116
161,222904,202096
161,222886,202088
161,222855,202107
161,222850,202101
161,222786,202071
161,222791,202077
161,222777,201992
162,222786,202065
162,222801,202071
162,222809,201985
162,222826,202012
162,222829,202006
162,222827,201992
162,222824,202032
162,222815,202016
162,222813,202038
162,222812,202039
162,222820,202031
162,222817,202037
162,222814,202009
162,222811,202074
162,222811,201984
162,222820,202031
162,222812,202040
162,222823,202030
162,222817,202014
162,222817,202053
162,222816,202029
162,222840,202085
162,222836,202021
162,222851,202059
162,222865,201998
162,222858,202008
162,222862,202096
162,222865,202045
162,222855,202068
162,222859,202058
162,222862,202039
162,222853,202056
163,222857,202081
163,222851,202089
163,222855,202046
163,222861,202060
163,222864,202064
163,222860,202057
163,222873,202038
163,222871,202033
163,222873,202075
163,222873,202064
163,222883,202041
163,222870,202051
163,222874,202078
163,222873,202063
163,222877,202064
163,222868,202068
163,222877,202052
163,222890,202117
163,222881,202031
163,222896,202040
163,222889,202042
163,222889,202041
163,222906,202135
163,222894,202040
163,222899,202050
163,222915,202017
163,222901,202056
163,222900,201978
163,222909,201991
163,222906,201975
163,222911,202027
163,222906,201988
164,222904,201983
164,222932,201968
164,222951,201930
164,222947,201969
164,222935,201986
164,222949,201970
164,222945,201953
164,222942,201942
164,222947,201990
164,222974,201975
164,222964,201981
164,222959,202021
164,222964,201987
164,222972,201960
164,222973,201997
164,222990,202010
164,222988,201999
164,222996,201959
164,222994,201980
164,222996,202048
164,222988,202050
164,223003,201964
164,223007,202036
164,223009,202003
164,223017,201988
164,223035,202047
164,223038,202028
164,223023,201974
164,223021,202020
164,223020,201967
164,223026,202055
164,223026,202029
165,223040,201979
165,223066,201918
165,223063,201994
165,223067,202029
165,223075,201996
165,223079,202008
165,223072,201965
165,223074,201991
165,223076,201997
165,223083,202060
165,223080,201985
165,223081,202008
165,223081,202029
165,223085,202045
165,223076,202004
165,223081,201972
165,223072,201977
165,223090,201974
165,223073,201983
165,223057,202007
165,223055,201980
165,223045,201943
165,223011,201948
165,223008,201950
165,222977,201945
165,222952,201927
165,222916,201921
165,222911,201923
165,222907,201903
165,222882,201894
165,222879,201923
165,222877,201957
166,222864,201954
166,222870,201884
166,222876,201917
166,222880,201939
166,222883,201916
166,222885,201910
166,222882,201899
166,222894,201949
166,222890,201932
166,222886,201915
166,222892,201893
166,222883,201925
166,222890,201906
166,222883,201928
166,222870,201906
166,222885,201897
166,222871,201915
166,222869,201909
166,222879,201902
166,222864,201918
166,222867,201895
166,222875,201901
166,222865,201929
166,222872,201898
166,222883,201927
166,222887,201978
166,222880,201914
166,222902,201909
166,222890,201923
166,222886,201920
166,222875,201879
166,222890,201897
167,222892,201884
167,222873,201891
167,222879,201880
167,222895,201903
167,222893,201885
167,222887,201917
167,222889,201877
167,222899,201914
167,222903,201891
167,222895,201894
167,222901,201882
167,222889,201922
167,222908,201913
167,222904,201961
167,222906,201873
167,222897,201920
167,222906,201935
167,222901,201911
167,222891,201972
167,222911,202006
167,222916,201954
167,222912,201919
167,222915,201864
167,222917,201888
167,222931,201933
167,222928,201935
167,222940,201894
167,222930,201846
167,222932,201909
167,222942,201919
167,222946,201881
167,222945,201905
168,222952,201905
168,222963,201919
168,222965,201949
168,222977,201959
168,222968,201905
168,222974,201920
168,222972,202009
168,222989,201994
168,222977,201951
168,222980,201949
168,222979,201919
168,222983,201967
168,222981,201977
168,222990,201975
168,222992,201971
168,223001,201936
168,223010,201946
168,223011,201991
168,223005,201970
168,223013,202001
168,223012,201957
168,223021,202019
168,223039,202017
168,223025,201932
168,223037,202052
168,223015,201954
168,223030,201987
168,223025,201948
168,223035,201927
168,223017,202006
168,223031,201906
168,223038,201938
169,223060,201994
169,223073,201977
169,223068,201980
169,223083,201952
169,223074,201960
169,223086,201931
169,223091,202005
169,223085,201948
169,223087,201936
169,223093,202002
169,223098,201980
169,223097,201957
169,223104,201977
169,223110,202087
169,223116,202065
169,223105,201935
169,223111,201903
169,223100,201959
169,223109,201958
169,223108,201991
169,223112,201931
169,223161,201955
169,223157,202010
169,223154,202042
169,223162,202022
169,223154,202046
169,223147,201973
169,223154,201954
169,223077,202001
169,223042,202001
169,223018,201955
169,223015,201968
170,222982,201987
170,222937,201938
170,222939,201937
170,222935,201945
170,222942,201989
170,222946,201957
170,222956,201982
170,222953,202015
170,222965,202025
170,222973,201951
170,222974,201914
170,222972,201956
170,222984,202102
170,222982,201978
170,222989,201963
170,223000,201998
170,222999,201995
170,223006,201966
170,223008,201954
170,223009,201936
170,223019,201916
170,223009,202021
170,223027,202021
170,223006,201968
170,223017,201977
170,223012,201953
170,223015,202002
170,223037,201951
170,223033,201945
170,223020,201971
170,223035,201946
170,223045,201975
171,223051,201904
171,223067,202125
171,223061,202028
171,223073,202004
171,223077,201979
171,223073,202018
171,223060,201959
171,223076,202001
171,223067,202010
171,223069,201991
171,223063,201974
171,223069,201996
171,223066,201977
171,223078,201968
171,223090,201991
171,223088,201987
171,223095,201947
171,223092,202032
171,223097,202000
171,223088,201977
171,223095,202050
171,223088,201986
171,223105,201973
171,223105,202028
171,223106,202016
171,223115,201973
171,223110,201985
171,223112,202013
171,223113,202067
171,223125,202061
171,223130,202052
171,223130,202057
172,223136,202007
172,223180,202118
172,223195,201978
172,223193,202058
172,223202,202086
172,223197,202024
172,223198,202036
172,223208,201995
172,223205,202099
172,223204,202070
172,223215,202046
172,223196,202028
172,223202,202003
172,223207,202042
172,223210,202076
172,223208,202087
172,223216,202069
172,223224,202085
172,223215,202050
172,223221,202071
172,223222,202063
172,223231,202140
172,223236,202071
172,223226,202011
172,223234,202040
172,223240,202026
172,223226,202062
172,223251,201978
172,223230,202025
172,223226,202053
172,223236,201991
172,223243,202076
173,223262,202095
173,223244,202113
173,223248,201980
173,223255,202039
173,223240,202073
173,223239,202098
173,223259,202079
173,223246,202085
173,223243,202063
173,223260,202077
173,223260,202069
173,223259,202034
173,223246,202054
173,223273,202059
173,223272,202048
173,223260,202056
173,223264,202091
173,223273,202085
173,223272,202162
173,223294,202026
173,223296,202112
173,223292,202076
173,223296,201982
173,223306,202019
173,223304,202069
173,223301,202014
173,223297,202040
173,223316,202073
173,223307,202062
173,223305,202105
173,223312,202074
173,223293,202040
174,223150,202051
174,223093,201993
174,223092,202071
174,223086,202005
174,223065,201960
174,223069,202000
174,223069,201995
174,223064,202011
174,223082,201960
174,223080,202010
174,223083,201995
174,223095,202013
174,223112,202031
174,223109,202041
174,223098,202011
174,223113,201982
174,223117,202049
174,223111,201993
174,223118,202018
174,223120,201987
174,223110,202039
174,223115,202034
174,223115,202010
174,223112,201999
174,223092,202041
174,223102,202020
174,223108,202030
174,223110,202020
174,223106,202060
174,223115,202028
174,223116,202043
174,223140,202023
175,223139,201990
175,223183,202039
175,223203,202065
175,223202,202089
175,223214,201993
175,223235,202070
175,223259,202089
175,223254,202082
175,223294,202049
175,223299,202086
175,223307,202057
175,223334,202067
175,223361,202054
175,223378,202042
175,223397,202031
175,223377,202125
175,223398,202108
175,223388,202096
175,223379,202042
175,223379,202091
175,223363,202127
175,223355,202149
175,223356,202132
175,223334,202110
175,223328,202073
175,223336,202098
175,223326,202038
175,223324,202085
175,223343,202137
175,223326,202059
175,223329,202062
175,223342,202095
176,223351,202088
176,223404,202178
176,223408,202125
176,223412,202173
176,223423,202182
176,223442,202243
176,223445,202180
176,223464,202172
176,223486,202202
176,223591,202241
176,223629,202282
176,223629,202250
176,223646,202284
176,223674,202246
176,223683,202276
176,223699,202312
176,223693,202268
176,223708,202280
176,223733,202259
176,223733,202251
176,223743,202278
176,223754,202322
176,223788,202314
176,223790,202326
176,223814,202301
176,223819,202354
176,223820,202324
176,223830,202330
176,223836,202318
176,223823,202340
176,223831,202363
176,223832,202403
177,223833,202322
177,223844,202352
177,223850,202340
177,223852,202364
177,223860,202297
177,223870,202394
177,223864,202310
177,223873,202394
177,223862,202410
177,223855,202395
177,223857,202396
177,223868,202391
177,223920,202403
177,223940,202340
177,223948,202385
177,223956,202369
177,224005,202480
177,224028,202405
177,224042,202376
177,224053,202387
177,224073,202432
177,224087,202487
177,224101,202485
177,224112,202478
177,224130,202463
177,224137,202476
177,224144,202457
177,224149,202490
177,224138,202491
177,224146,202474
177,224124,202558
177,224120,202489
178,223886,202445
178,223876,202344
178,223855,202391
178,223867,202481
178,223865,202393
178,223857,202382
178,223878,202365
178,223895,202398
178,223897,202384
178,223908,202364
178,223850,202347
178,223834,202314
178,223856,202358
178,223850,202401
178,223847,202421
178,223856,202363
178,223898,202427
178,223909,202442
178,223908,202389
178,223922,202409
178,223932,202441
178,223923,202457
178,223918,202405
178,223907,202392
178,223894,202415
178,223866,202412
178,223859,202425
178,223852,202390
178,223857,202455
178,223861,202459
178,223859,202427
178,223868,202434
179,223879,202417
179,223850,202379
179,223832,202412
179,223832,202414
179,223837,202396
179,223839,202394
179,223841,202384
179,223830,202438
179,223843,202480
179,223854,202481
179,223850,202470
179,223839,202429
179,223839,202413
179,223831,202387
179,223818,202419
179,223823,202382
179,223845,202396
179,223826,202398
179,223827,202394
179,223836,202406
179,223844,202371
179,223861,202422
179,223873,202436
179,223864,202408
179,223862,202415
179,223878,202380
179,223877,202473
179,223867,202391
179,223894,202357
179,223886,202420
179,223904,202439
179,223919,202469
180,223949,202424
180,223971,202471
180,223974,202455
180,223979,202467
180,223984,202462
180,223991,202446
180,223988,202457
180,223972,202456
180,223988,202491
180,223970,202429
180,223974,202441
180,223974,202499
180,223973,202462
180,223959,202465
180,223973,202457
180,223965,202456
180,223951,202379
180,223948,202418
180,223943,202418
180,223956,202391
180,223951,202493
180,223963,202457
180,223964,202376
180,223963,202416
180,223985,202407
180,223983,202418
180,223983,202460
180,223987,202428
180,224019,202447
180,224003,202469
180,224008,202428
180,224018,202458
181,223967,202462
181,223973,202484
181,223971,202373
181,223959,202449
181,223964,202472
181,223959,202404
181,223958,202431
181,223950,202434
181,223963,202427
181,223977,202456
181,223967,202417
181,223986,202433
181,223984,202509
181,223976,202469
181,223997,202391
181,223990,202435
181,223990,202424
181,224002,202423
181,223990,202405
181,223975,202484
181,223967,202493
181,223966,202453
181,223964,202498
181,223960,202453
181,223955,202464
181,223948,202494
181,223951,202486
181,223940,202469
181,223965,202473
181,223954,202464
181,223964,202445
181,223966,202465
182,223955,202444
182,223797,202401
182,223774,202361
182,223769,202386
182,223777,202423
182,223756,202429
182,223752,202365
182,223757,202420
182,223753,202422
182,223751,202359
182,223757,202375
182,223758,202410
182,223758,202447
182,223778,202423
182,223788,202440
182,223792,202417
182,223796,202366
182,223818,202423
182,223837,202433
182,223837,202454
182,223851,202421
182,223872,202442
182,223877,202486
182,223892,202435
182,223893,202378
182,223921,202458
182,223913,202425
182,223934,202441
182,223930,202407
182,223915,202418
182,223923,202503
182,223911,202414
183,223905,202432
183,223929,202452
183,223920,202384
183,223930,202431
183,223940,202434
183,223938,202385
183,223942,202395
183,223955,202435
183,223932,202353
183,223930,202359
183,223921,202355
183,223894,202386
183,223907,202358
183,223886,202423
183,223885,202380
183,223864,202366
183,223865,202404
183,223856,202440
183,223848,202398
183,223862,202392
183,223872,202401
183,223871,202407
183,223864,202389
183,223885,202411
183,223891,202341
183,223888,202397
183,223905,202387
183,223918,202435
183,223921,202459
183,223920,202453
183,223925,202486
183,223926,202470
184,223925,202413
184,223912,202440
184,223905,202360
184,223905,202398
184,223907,202450
184,223906,202355
184,223901,202379
184,223913,202389
184,223909,202439
184,223909,202393
184,223911,202406
184,223914,202369
184,223892,202349
184,223907,202406
184,223897,202458
184,223896,202406
184,223901,202366
184,223902,202462
184,223904,202386
184,223899,202368
184,223894,202386
184,223903,202398
184,223893,202416
184,223914,202471
184,223909,202472
184,223902,202437
184,223917,202602
184,223932,202498
184,223905,202510
184,223923,202447
184,223932,202452
184,223930,202425
185,223980,202446
185,223985,202417
185,223984,202435
185,223990,202394
185,223987,202417
185,223991,202415
185,224006,202482
185,224034,202514
185,224029,202478
185,224032,202482
185,224028,202478
185,224039,202490
185,224047,202475
185,224045,202463
185,224043,202406
185,224052,202467
185,224051,202457
185,224047,202484
185,224053,202465
185,224044,202469
185,224053,202457
185,224038,202470
185,224072,202462
185,224060,202415
185,224051,202456
185,224048,202486
185,224057,202468
185,224052,202473
185,224067,202447
185,224065,202473
185,224061,202466
185,224060,202464
186,223861,202365
186,223841,202359
186,223829,202358
186,223815,202331
186,223785,202353
186,223790,202382
186,223774,202385
186,223777,202369
186,223779,202366
186,223792,202395
186,223778,202351
186,223780,202365
186,223805,202362
186,223819,202356
186,223806,202337
186,223819,202319
186,223822,202298
186,223825,202319
186,223837,202357
186,223834,202316
186,223822,202342
186,223826,202327
186,223836,202358
186,223830,202330
186,223820,202352
186,223820,202314
186,223826,202370
186,223799,202329
186,223803,202295
186,223800,202357
186,223793,202351
186,223794,202321
187,223828,202316
187,223822,202382
187,223835,202359
187,223827,202352
187,223828,202372
187,223840,202391
187,223816,202335
187,223811,202339
187,223813,202377
187,223810,202332
187,223820,202368
187,223812,202280
187,223811,202331
187,223798,202350
187,223779,202315
187,223801,202343
187,223793,202328
187,223777,202320
187,223781,202388
187,223782,202331
187,223772,202352
187,223787,202368
187,223792,202359
187,223806,202301
187,223781,202287
187,223797,202311
187,223805,202293
187,223804,202362
187,223798,202380
187,223809,202331
187,223809,202390
187,223806,202303
188,223801,202344
188,223820,202327
188,223816,202335
188,223817,202304
188,223827,202331
188,223831,202315
188,223820,202377
188,223829,202339
188,223835,202381
188,223820,202352
188,223821,202369
188,223834,202342
188,223835,202330
188,223824,202358
188,223827,202346
188,223828,202350
188,223820,202345
188,223836,202353
188,223839,202359
188,223834,202360
188,223838,202314
188,223835,202365
188,223836,202335
188,223842,202325
188,223836,202354
188,223839,202308
188,223838,202406
188,223844,202340
188,223849,202302
188,223837,202328
188,223839,202304
188,223831,202364
189,223858,202325
189,223864,202246
189,223870,202312
189,223876,202292
189,223869,202296
189,223877,202285
189,223874,202272
189,223865,202274
189,223870,202324
189,223884,202280
189,223878,202289
189,223893,202370
189,223878,202307
189,223887,202314
189,223889,202328
189,223893,202320
189,223897,202259
189,223903,202315
189,223913,202353
189,223912,202356
189,223916,202370
189,223916,202334
189,223927,202373
189,223921,202380
189,223930,202303
189,223939,202316
189,223926,202351
189,223929,202301
189,223915,202311
189,223908,202329
189,223892,202296
189,223871,202325
190,223672,202290
190,223659,202299
190,223655,202238
190,223657,202302
190,223641,202232
190,223634,202242
190,223625,202231
190,223632,202214
190,223634,202209
190,223638,202280
190,223649,202216
190,223637,202194
190,223669,202216
190,223665,202268
190,223673,202218
190,223665,202205
190,223681,202214
190,223668,202205
190,223679,202246
190,223675,202265
190,223674,202284
190,223666,202269
190,223688,202294
190,223678,202252
190,223690,202251
190,223674,202276
190,223684,202274
190,223676,202266
190,223663,202205
190,223675,202282
190,223662,202246
190,223678,202240
191,223690,202247
191,223686,202219
191,223702,202268
191,223683,202289
191,223673,202234
191,223688,202273
191,223700,202276
191,223677,202249
191,223685,202240
191,223679,202226
191,223669,202210
191,223678,202265
191,223670,202249
191,223655,202238
191,223665,202258
191,223662,202274
191,223673,202275
191,223664,202239
191,223685,202227
191,223680,202234
191,223670,202215
191,223666,202240
191,223669,202233
191,223672,202232
191,223666,202232
191,223672,202247
191,223679,202179
191,223659,202207
191,223676,202245
191,223685,202201
191,223676,202266
191,223676,202263
192,223683,202232
192,223696,202345
192,223704,202327
192,223711,202358
192,223699,202329
192,223698,202306
192,223705,202255
192,223690,202201
192,223707,202229
192,223703,202236
192,223701,202165
192,223705,202216
192,223698,202183
192,223690,202208
192,223681,202189
192,223689,202194
192,223691,202175
192,223686,202325
192,223703,202267
192,223692,202239
192,223702,202231
192,223724,202176
192,223707,202235
192,223709,202201
192,223717,202205
192,223718,202274
192,223732,202207
192,223716,202176
192,223713,202251
192,223723,202262
192,223731,202226
192,223734,202164
193,223748,202340
193,223754,202310
193,223755,202241
193,223746,202228
193,223780,202199
193,223769,202274
193,223768,202220
193,223786,202198
193,223793,202252
193,223792,202267
193,223776,202241
193,223799,202265
193,223795,202228
193,223799,202195
193,223806,202230
193,223806,202220
193,223799,202238
193,223813,202281
193,223812,202328
193,223814,202254
193,223809,202262
193,223812,202177
193,223825,202270
193,223827,202203
193,223823,202222
193,223831,202176
193,223815,202245
193,223823,202236
193,223821,202243
193,223835,202239
193,223831,202187
193,223845,202285
194,223857,202257
194,223745,202210
194,223720,202167
194,223692,202197
194,223680,202211
194,223657,202170
194,223587,202286
194,223585,202189
194,223568,202204
194,223575,202194
194,223586,202177
194,223580,202184
194,223582,202123
194,223586,202111
194,223601,202137
194,223601,202207
194,223599,202175
194,223609,202183
194,223606,202156
194,223606,202195
194,223613,202142
194,223626,202181
194,223614,202255
194,223637,202267
194,223628,202263
194,223629,202241
194,223629,202222
194,223622,202205
194,223625,202176
194,223618,202088
194,223632,202113
194,223615,202178
195,223613,202119
195,223636,202168
195,223629,202152
195,223652,202134
195,223662,202172
195,223648,202226
195,223650,202173
195,223653,202181
195,223647,202161
195,223657,202117
195,223645,202148
195,223656,202150
195,223637,202179
195,223652,202181
195,223649,202160
195,223639,202153
195,223638,202152
195,223653,202155
195,223644,202055
195,223627,202129
195,223630,202152
195,223638,202104
195,223631,202114
195,223658,202164
195,223639,202136
195,223636,202131
195,223637,202157
195,223640,202140
195,223632,202157
195,223647,202164
195,223648,202151
195,223633,202172
196,223644,202128
196,223643,202170
196,223655,202148
196,223653,202095
196,223650,202164
196,223658,202202
196,223665,202204
196,223660,202147
196,223651,202134
196,223663,202147
196,223670,202216
196,223645,202129
196,223662,202136
196,223654,202131
196,223652,202197
196,223665,202173
196,223672,202218
196,223661,202172
196,223673,202187
196,223675,202161
196,223684,202140
196,223677,202173
196,223689,202175
196,223697,202140
196,223698,202149
196,223707,202126
196,223688,202185
196,223681,202193
196,223697,202192
196,223697,202160
196,223685,202199
196,223688,202150
197,223695,202232
197,223700,202246
197,223705,202151
197,223699,202164
197,223705,202193
197,223699,202193
197,223704,202114
197,223705,202128
197,223708,202169
197,223714,202132
197,223699,202182
197,223702,202204
197,223716,202134
197,223720,202153
197,223724,202171
197,223715,202149
197,223718,202153
197,223709,202072
197,223738,202185
197,223741,202203
197,223739,202237
197,223743,202228
197,223750,202173
197,223739,202156
197,223739,202212
197,223720,202212
197,223717,202260
197,223710,202306
197,223687,202263
197,223664,202171
197,223631,202139
197,223613,202183
198,223581,202131
198,223486,202061
198,223479,202135
198,223476,202007
198,223464,202029
198,223464,202114
198,223452,202102
198,223465,202119
198,223467,202042
198,223473,202072
198,223469,202071
198,223472,202148
198,223485,202079
198,223471,202048
198,223482,202056
198,223483,202073
198,223468,202079
198,223488,202064
198,223482,202081
198,223493,202114
198,223497,202087
198,223502,202031
198,223503,202129
198,223511,202099
198,223503,202145
198,223499,202135
198,223510,202097
198,223519,202043
198,223514,202046
198,223534,202056
198,223520,202047
198,223513,202054
199,223509,202039
199,223479,202064
199,223495,201963
199,223498,202085
199,223489,202012
199,223490,201982
199,223502,202041
199,223507,202073
199,223495,202044
199,223513,202018
199,223512,201930
199,223508,202057
199,223523,202083
199,223510,202061
199,223510,202078
199,223501,201968
199,223507,201984
199,223520,202016
199,223503,202037
199,223529,202046
199,223517,202029
199,223511,201990
199,223529,202110
199,223534,202055
199,223532,202012
199,223529,202021
199,223537,202078
199,223520,202069
199,223542,202039
199,223535,202033
199,223540,202045
199,223537,202026
200,223555,202075
200,223552,202063
200,223567,202078
200,223580,202035
200,223560,202081
200,223568,202120
200,223565,202054
200,223565,202098
200,223568,201995
200,223577,202143
200,223584,202089
200,223576,202058
200,223578,202088
200,223585,202093
200,223594,202032
200,223605,202086
200,223587,202042
200,223583,202058
200,223605,202053
200,223594,202096
200,223598,202125
200,223602,202071
200,223600,202063
200,223594,202083
200,223606,202073
200,223600,202079
200,223611,202082
200,223614,202060
200,223616,202106
200,223610,202149
200,223619,202083
200,223613,202145
201,223651,202064
201,223652,202134
201,223656,202078
201,223646,202021
201,223667,202059
201,223665,202090
201,223670,202109
201,223661,202098
201,223675,202104
201,223677,202094
201,223668,202080
201,223677,202149
201,223665,202117
201,223672,202109
201,223678,202151
201,223681,202115
201,223665,202102
201,223671,202079
201,223672,202057
201,223648,202087
201,223628,202066
201,223622,202088
201,223605,202084
201,223563,202047
201,223546,202034
201,223521,202103
201,223500,202062
201,223492,202037
201,223465,202025
201,223444,201994
201,223390,201997
201,223387,201961
202,223418,201970
202,223413,202020
202,223419,202031
202,223438,202015
202,223420,202027
202,223430,202103
202,223427,202019
202,223427,202075
202,223424,202028
202,223427,202002
202,223430,201964
202,223436,202020
202,223414,201933
202,223422,201954
202,223429,201925
202,223432,201939
202,223420,201970
202,223417,201958
202,223406,201990
202,223411,201959
202,223428,202006
202,223430,201968
202,223433,201978
202,223450,201992
202,223463,201961
202,223457,202006
202,223442,201955
202,223445,201941
202,223451,201947
202,223434,201914
202,223442,201919
202,223443,201936
203,223434,201960
203,223425,201979
203,223425,201964
203,223428,201961
203,223441,201908
203,223445,201999
203,223446,201922
203,223445,202082
203,223445,201977
203,223436,201962
203,223439,202008
203,223442,201942
203,223443,201996
203,223444,201926
203,223457,201987
203,223443,201923
203,223453,201966
203,223435,201986
203,223428,201975
203,223431,201905
203,223442,201940
203,223427,201979
203,223434,201937
203,223446,201931
203,223460,201919
203,223467,201962
203,223460,201929
203,223468,201943
203,223459,201923
203,223452,201943
203,223464,201969
203,223453,201936
204,223465,201945
204,223471,201971
204,223483,201936
204,223477,202009
204,223481,201993
204,223469,202036
204,223501,201994
204,223475,202001
204,223480,201971
204,223494,202000
204,223490,201973
204,223489,201937
204,223482,201941
204,223484,201991
204,223508,201947
204,223513,201945
204,223504,201977
204,223492,201965
204,223496,201994
204,223499,201952
204,223510,201984
204,223496,201990
204,223498,201945
204,223508,201951
204,223497,201947
204,223507,201988
204,223509,201956
204,223506,201974
204,223499,201942
204,223518,201957
204,223516,201960
204,223511,201969
205,223547,201986
205,223554,201980
205,223570,201952
205,223596,201918
205,223575,201967
205,223594,201940
205,223596,202007
205,223598,201933
205,223591,201960
205,223606,201992
205,223595,201976
205,223601,201941
205,223610,202007
205,223618,201974
205,223610,201947
205,223612,201991
205,223628,201983
205,223603,201968
205,223608,201994
205,223604,202015
205,223587,201938
205,223574,201954
205,223555,201925
205,223514,201954
205,223493,201937
205,223479,201917
205,223460,201908
205,223435,201981
205,223417,201892
205,223407,201954
205,223387,201880
205,223385,201891
206,223382,201933
206,223361,201901
206,223371,201889
206,223380,201881
206,223373,201860
206,223386,201919
206,223392,201877
206,223386,201898
206,223403,201890
206,223396,201912
206,223404,201893
206,223405,201877
206,223402,201896
206,223411,201929
206,223419,201926
206,223427,201929
206,223421,201906
206,223410,201913
206,223417,201902
206,223407,201931
206,223409,201859
206,223365,201915
206,223420,201883
206,223433,201914
206,223430,201984
206,223449,201933
206,223426,201938
206,223451,201946
206,223450,201941
206,223441,201890
206,223428,201911
206,223433,201944
207,223443,201920
207,223437,201871
207,223441,201862
207,223444,201850
207,223439,201869
207,223453,201881
207,223454,201914
207,223449,201899
207,223449,201871
207,223460,201839
207,223463,201860
207,223444,201915
207,223432,201879
207,223443,201885
207,223450,201915
207,223445,201925
207,223446,201840
207,223437,201877
207,223464,201930
207,223448,201898
207,223450,201843
207,223445,201838
207,223451,201889
207,223455,201863
207,223474,201853
207,223460,201827
207,223444,201809
207,223472,201871
207,223463,201873
207,223457,201833
207,223472,201918
207,223470,201850
208,223492,201866
208,223486,201906
208,223479,201926
208,223491,201882
208,223506,201929
208,223498,201940
208,223493,201962
208,223507,201966
208,223498,201945
208,223512,201933
208,223509,201890
208,223507,201887
208,223512,201931
208,223504,201918
208,223511,201937
208,223497,201981
208,223489,201955
208,223498,201873
208,223509,201947
208,223497,201942
208,223480,201908
208,223486,201905
208,223490,201921
208,223480,202013
208,223477,201988
208,223466,202018
208,223466,201972
208,223467,201977
208,223471,201961
208,223470,201978
208,223486,201973
208,223486,202005
209,223562,202028
209,223569,202037
209,223572,201966
209,223567,202024
209,223583,202009
209,223588,202009
209,223581,201989
209,223590,202037
209,223585,202070
209,223599,202001
209,223603,202037
209,223607,202046
209,223602,202082
209,223617,202067
209,223615,202009
209,223623,202029
209,223625,202018
209,223591,202025
209,223582,202000
209,223534,201999
209,223539,202005
209,223514,201959
209,223482,201910
209,223460,201959
209,223369,201925
209,223372,201940
209,223352,201927
209,223348,201887
209,223343,201911
209,223359,201886
209,223352,201937
209,223342,201903
210,223355,201925
210,223395,201950
210,223394,201984
210,223401,201967
210,223395,201967
210,223423,201977
210,223394,202008
210,223404,201926
210,223421,201940
210,223420,201982
210,223405,201955
210,223396,201987
210,223427,202007
210,223422,202020
210,223418,201983
210,223426,201938
210,223435,202023
210,223459,202001
210,223450,201956
210,223480,201994
210,223461,201964
210,223462,202034
210,223472,201995
210,223492,201950
210,223467,201960
210,223489,201963
210,223476,201970
210,223461,201987
210,223467,202050
210,223475,202022
210,223467,202017
210,223465,202037
211,223516,201999
211,223520,202056
211,223522,202030
211,223510,202032
211,223520,202038
211,223516,202020
211,223518,202027
211,223511,202009
211,223513,201996
211,223524,202028
211,223521,202001
211,223532,202056
211,223528,202016
211,223535,202088
211,223534,201941
211,223539,202060
211,223541,201985
211,223556,201974
211,223549,202036
211,223553,202016
211,223570,202040
211,223571,202081
211,223564,202106
211,223567,202048
211,223579,202122
211,223563,202055
211,223566,202065
211,223566,202030
211,223563,202027
211,223581,202026
211,223578,202026
211,223578,202028
212,223584,201948
212,223599,201938
212,223611,201974
212,223594,201938
212,223613,201911
212,223616,201926
212,223618,201922
212,223608,201918
212,223620,201873
212,223634,201914
212,223626,201928
212,223618,201934
212,223624,202074
212,223629,201992
212,223626,201955
212,223632,201963
212,223633,201973
212,223631,201938
212,223628,201993
212,223630,202004
212,223625,201931
212,223634,201960
212,223648,201963
212,223649,201986
212,223648,201949
212,223647,202004
212,223642,202000
212,223634,202040
212,223659,201974
212,223655,201952
212,223640,201964
212,223646,201945
213,223679,202056
213,223684,202093
213,223680,202062
213,223712,202058
213,223686,202013
213,223705,202037
213,223682,202058
213,223688,201973
213,223681,202004
213,223676,202018
213,223656,202055
213,223632,202022
213,223622,202038
213,223597,202082
213,223583,202001
213,223560,202043
213,223536,202017
213,223505,202021
213,223490,201978
213,223471,202043
213,223455,201995
213,223459,201987
213,223433,201993
213,223422,201967
213,223437,201955
213,223422,201966
213,223420,201945
213,223417,201956
213,223425,201958
213,223423,201948
213,223426,201966
213,223424,201977
214,223426,201959
214,223445,201952
214,223434,201948
214,223427,201948
214,223439,201955
214,223441,201989
214,223443,202006
214,223421,202009
214,223426,201996
214,223418,201917
214,223418,201882
214,223430,201944
214,223424,201959
214,223422,201935
214,223429,201995
214,223434,201947
214,223433,201944
214,223434,201953
214,223449,201986
214,223441,201938
214,223437,201929
214,223425,201947
214,223424,201972
214,223423,201903
214,223417,201959
214,223416,201989
214,223407,201917
214,223419,201909
214,223405,201894
214,223408,201924
214,223417,201916
214,223414,201892
215,223426,201943
215,223422,201939
215,223415,201924
215,223414,201873
215,223416,201925
215,223420,201923
215,223427,201923
215,223426,202007
215,223415,202004
215,223423,201963
